TI-AFEXXXX,,2/16/2022,
GRE-DC_Time,GRE-DC_Value,GRE-AMB_Time,GRE-AMB_Value
0,-0.419298935,0,-0.224313354
0.009765625,-0.419187927,0.009765625,-0.224565125
0.01953125,-0.419319534,0.01953125,-0.223901939
0.029296875,-0.419412804,0.029296875,-0.225544167
0.0390625,-0.419359016,0.0390625,-0.226975822
0.048828125,-0.419436264,0.048828125,-0.226464272
0.05859375,-0.419292068,0.05859375,-0.228507042
0.068359375,-0.419352722,0.068359375,-0.228846359
0.078125,-0.419296074,0.078125,-0.22953701
0.087890625,-0.41907692,0.087890625,-0.230585861
0.09765625,-0.419252014,0.09765625,-0.230517769
0.107421875,-0.419433403,0.107421875,-0.231778336
0.1171875,-0.419338989,0.1171875,-0.233958435
0.126953125,-0.419750404,0.126953125,-0.235020447
0.13671875,-0.419484901,0.13671875,-0.235943413
0.146484375,-0.419310379,0.146484375,-0.237768745
0.15625,-0.419169044,0.15625,-0.238876534
0.166015625,-0.419535255,0.166015625,-0.240521049
0.17578125,-0.419344139,0.17578125,-0.24202137
0.185546875,-0.419450569,0.185546875,-0.24148407
0.1953125,-0.419027138,0.1953125,-0.244226646
0.205078125,-0.419617653,0.205078125,-0.243597221
0.21484375,-0.419621658,0.21484375,-0.245486641
0.224609375,-0.419418526,0.224609375,-0.247169495
0.234375,-0.419468307,0.234375,-0.248916435
0.244140625,-0.419418526,0.244140625,-0.250330925
0.25390625,-0.419840813,0.25390625,-0.252615738
0.263671875,-0.419550705,0.263671875,-0.254296303
0.2734375,-0.419656563,0.2734375,-0.254716301
0.283203125,-0.419666862,0.283203125,-0.256589127
0.29296875,-0.419605637,0.29296875,-0.257238579
0.302734375,-0.419394493,0.302734375,-0.257277489
0.3125,-0.419699478,0.3125,-0.256507301
0.322265625,-0.419670296,0.322265625,-0.257600784
0.33203125,-0.419354439,0.33203125,-0.257922363
0.341796875,-0.419521523,0.341796875,-0.256768799
0.3515625,-0.419717216,0.3515625,-0.256432915
0.361328125,-0.419500923,0.361328125,-0.254744911
0.37109375,-0.419540405,0.37109375,-0.252133369
0.380859375,-0.41928463,0.380859375,-0.252025795
0.390625,-0.419489479,0.390625,-0.251896477
0.400390625,-0.419649124,0.400390625,-0.251046753
0.41015625,-0.419603348,0.41015625,-0.24887867
0.419921875,-0.419538116,0.419921875,-0.246153831
0.4296875,-0.41947403,0.4296875,-0.245405388
0.439453125,-0.419563866,0.439453125,-0.244154549
0.44921875,-0.419342422,0.44921875,-0.242757797
0.458984375,-0.419455147,0.458984375,-0.241779327
0.46875,-0.419298363,0.46875,-0.241353607
0.478515625,-0.419538689,0.478515625,-0.23737793
0.48828125,-0.419466591,0.48828125,-0.235851288
0.498046875,-0.419455147,0.498046875,-0.234322357
0.5078125,-0.419211388,0.5078125,-0.232722473
0.517578125,-0.419454002,0.517578125,-0.232190895
0.52734375,-0.4195467,0.52734375,-0.229976463
0.537109375,-0.419278908,0.537109375,-0.229595375
0.546875,-0.419298935,0.546875,-0.227175522
0.556640625,-0.419015694,0.556640625,-0.227225304
0.56640625,-0.419183922,0.56640625,-0.225743294
0.576171875,-0.419349289,0.576171875,-0.224981689
0.5859375,-0.419273186,0.5859375,-0.222378731
0.595703125,-0.419190216,0.595703125,-0.222631073
0.60546875,-0.419047165,0.60546875,-0.220968819
0.615234375,-0.419210243,0.615234375,-0.221162224
0.625,-0.419051743,0.625,-0.219763184
0.634765625,-0.419360161,0.634765625,-0.219884491
0.64453125,-0.419106102,0.64453125,-0.219372368
0.654296875,-0.418952751,0.654296875,-0.217686081
0.6640625,-0.419239998,0.6640625,-0.216547966
0.673828125,-0.419304085,0.673828125,-0.214657974
0.68359375,-0.419228554,0.68359375,-0.214817619
0.693359375,-0.419137573,0.693359375,-0.214634514
0.703125,-0.418980217,0.703125,-0.216070175
0.712890625,-0.41922226,0.712890625,-0.214911461
0.72265625,-0.419016838,0.72265625,-0.214062309
0.732421875,-0.419023132,0.732421875,-0.213388824
0.7421875,-0.419130135,0.7421875,-0.212966537
0.751953125,-0.419130707,0.751953125,-0.213372231
0.76171875,-0.419218254,0.76171875,-0.212572861
0.771484375,-0.418936729,0.771484375,-0.213777351
0.78125,-0.419293785,0.78125,-0.213846588
0.791015625,-0.419210815,0.791015625,-0.212949371
0.80078125,-0.419282341,0.80078125,-0.213306999
0.810546875,-0.419098091,0.810546875,-0.212642097
0.8203125,-0.419206238,0.8203125,-0.212943649
0.830078125,-0.419261169,0.830078125,-0.212833214
0.83984375,-0.419171906,0.83984375,-0.213868332
0.849609375,-0.419285202,0.849609375,-0.213887787
0.859375,-0.419075203,0.859375,-0.215381241
0.869140625,-0.41932869,0.869140625,-0.215098572
0.87890625,-0.419128418,0.87890625,-0.215774345
0.888671875,-0.419422531,0.888671875,-0.21663723
0.8984375,-0.41912899,0.8984375,-0.216448975
0.908203125,-0.419166183,0.908203125,-0.217151642
0.91796875,-0.419219971,0.91796875,-0.217259789
0.927734375,-0.418891525,0.927734375,-0.217806816
0.9375,-0.419428253,0.9375,-0.217961884
0.947265625,-0.419594765,0.947265625,-0.220026398
0.95703125,-0.419206238,0.95703125,-0.219386101
0.966796875,-0.419231415,0.966796875,-0.221801376
0.9765625,-0.419403648,0.9765625,-0.219909668
0.986328125,-0.419185638,0.986328125,-0.222696304
0.99609375,-0.419120407,0.99609375,-0.221953011
1.005859375,-0.41926918,1.005859375,-0.223660469
1.015625,-0.41919651,1.015625,-0.223336029
1.025390625,-0.41921196,1.025390625,-0.224868393
1.03515625,-0.419425392,1.03515625,-0.226998711
1.044921875,-0.419106102,1.044921875,-0.227227592
1.0546875,-0.419277191,1.0546875,-0.226589584
1.064453125,-0.419432831,1.064453125,-0.227327156
1.07421875,-0.419372749,1.07421875,-0.228584862
1.083984375,-0.419257164,1.083984375,-0.229504967
1.09375,-0.419514084,1.09375,-0.230657387
1.103515625,-0.419377327,1.103515625,-0.231148911
1.11328125,-0.419405365,1.11328125,-0.232995415
1.123046875,-0.419352722,1.123046875,-0.233002853
1.1328125,-0.419203949,1.1328125,-0.235909081
1.142578125,-0.419474602,1.142578125,-0.236302757
1.15234375,-0.419479179,1.15234375,-0.236735916
1.162109375,-0.419416237,1.162109375,-0.23941555
1.171875,-0.419483185,1.171875,-0.240014076
1.181640625,-0.419390488,1.181640625,-0.241571045
1.19140625,-0.419282913,1.19140625,-0.242389297
1.201171875,-0.419393349,1.201171875,-0.243756294
1.2109375,-0.41926918,1.2109375,-0.243813515
1.220703125,-0.419494629,1.220703125,-0.244616318
1.23046875,-0.419558144,1.23046875,-0.247587776
1.240234375,-0.419602203,1.240234375,-0.247076225
1.25,-0.419522095,1.25,-0.248361397
1.259765625,-0.419553566,1.259765625,-0.250647354
1.26953125,-0.419512367,1.26953125,-0.253090096
1.279296875,-0.419532967,1.279296875,-0.255400085
1.2890625,-0.419468307,1.2890625,-0.256444359
1.298828125,-0.41981678,1.298828125,-0.257284355
1.30859375,-0.419603348,1.30859375,-0.25843792
1.318359375,-0.419512939,1.318359375,-0.25776844
1.328125,-0.419610786,1.328125,-0.258360672
1.337890625,-0.41981163,1.337890625,-0.258280563
1.34765625,-0.419512939,1.34765625,-0.256657791
1.357421875,-0.419682884,1.357421875,-0.256137657
1.3671875,-0.41966114,1.3671875,-0.254276848
1.376953125,-0.419584465,1.376953125,-0.252318764
1.38671875,-0.419363022,1.38671875,-0.249965858
1.396484375,-0.419400787,1.396484375,-0.248605728
1.40625,-0.419353867,1.40625,-0.24581337
1.416015625,-0.419562721,1.416015625,-0.242684555
1.42578125,-0.419421387,1.42578125,-0.241522408
1.435546875,-0.41942482,1.435546875,-0.238776398
1.4453125,-0.419372749,1.4453125,-0.2350811
1.455078125,-0.419272614,1.455078125,-0.232669258
1.46484375,-0.419325829,1.46484375,-0.230421638
1.474609375,-0.419334984,1.474609375,-0.227950287
1.484375,-0.419311523,1.484375,-0.223944283
1.494140625,-0.419238853,1.494140625,-0.222061729
1.50390625,-0.419260597,1.50390625,-0.218972397
1.513671875,-0.419265175,1.513671875,-0.21640377
1.5234375,-0.419183922,1.5234375,-0.211193848
1.533203125,-0.419070625,1.533203125,-0.208711052
1.54296875,-0.41907692,1.54296875,-0.20530529
1.552734375,-0.418927002,1.552734375,-0.202784729
1.5625,-0.419036865,1.5625,-0.199191856
1.572265625,-0.41918335,1.572265625,-0.194753265
1.58203125,-0.418868065,1.58203125,-0.193192291
1.591796875,-0.419130135,1.591796875,-0.190476608
1.6015625,-0.419166756,1.6015625,-0.188113976
1.611328125,-0.418874931,1.611328125,-0.183708
1.62109375,-0.418991661,1.62109375,-0.181331635
1.630859375,-0.418671227,1.630859375,-0.177885818
1.640625,-0.418776512,1.640625,-0.174826241
1.650390625,-0.418796539,1.650390625,-0.171980667
1.66015625,-0.418836021,1.66015625,-0.169111633
1.669921875,-0.418717575,1.669921875,-0.16560173
1.6796875,-0.418743896,1.6796875,-0.163149261
1.689453125,-0.418616295,1.689453125,-0.158965302
1.69921875,-0.418551064,1.69921875,-0.156846428
1.708984375,-0.41859169,1.708984375,-0.154940987
1.71875,-0.41853447,1.71875,-0.150083542
1.728515625,-0.418736458,1.728515625,-0.148088837
1.73828125,-0.418535042,1.73828125,-0.145578003
1.748046875,-0.418309021,1.748046875,-0.143283463
1.7578125,-0.418618011,1.7578125,-0.140332031
1.767578125,-0.418355942,1.767578125,-0.13799572
1.77734375,-0.418385696,1.77734375,-0.135821342
1.787109375,-0.418570518,1.787109375,-0.134806252
1.796875,-0.418385124,1.796875,-0.13162365
1.806640625,-0.418404579,1.806640625,-0.130469513
1.81640625,-0.418337059,1.81640625,-0.128629875
1.826171875,-0.418387413,1.826171875,-0.125779724
1.8359375,-0.418344498,1.8359375,-0.124659348
1.845703125,-0.41822834,1.845703125,-0.121320534
1.85546875,-0.41838398,1.85546875,-0.12065506
1.865234375,-0.418269539,1.865234375,-0.118254662
1.875,-0.41823864,1.875,-0.116793823
1.884765625,-0.418201447,1.884765625,-0.115691185
1.89453125,-0.418304443,1.89453125,-0.114638901
1.904296875,-0.41816082,1.904296875,-0.113251305
1.9140625,-0.41815567,1.9140625,-0.111166763
1.923828125,-0.418171692,1.923828125,-0.111209106
1.93359375,-0.418190002,1.93359375,-0.110959053
1.943359375,-0.418182564,1.943359375,-0.108338928
1.953125,-0.418110466,1.953125,-0.109315681
1.962890625,-0.418047523,1.962890625,-0.107933235
1.97265625,-0.418143654,1.97265625,-0.105347443
1.982421875,-0.418075562,1.982421875,-0.10517292
1.9921875,-0.418097305,1.9921875,-0.10285778
2.001953125,-0.417920494,2.001953125,-0.101249886
2.01171875,-0.418199158,2.01171875,-0.102057266
2.021484375,-0.41804924,2.021484375,-0.099549294
2.03125,-0.417682457,2.03125,-0.098416328
2.041015625,-0.41813221,2.041015625,-0.098042679
2.05078125,-0.418175125,2.05078125,-0.097601509
2.060546875,-0.418319893,2.060546875,-0.096809578
2.0703125,-0.417961121,2.0703125,-0.094720459
2.080078125,-0.418069267,2.080078125,-0.094703865
2.08984375,-0.41809845,2.08984375,-0.094196892
2.099609375,-0.417979431,2.099609375,-0.093217278
2.109375,-0.418124771,2.109375,-0.093117142
2.119140625,-0.417918777,2.119140625,-0.093488503
2.12890625,-0.418046951,2.12890625,-0.092483711
2.138671875,-0.41804409,2.138671875,-0.093200111
2.1484375,-0.418042946,2.1484375,-0.092184448
2.158203125,-0.41821003,2.158203125,-0.09241848
2.16796875,-0.417863274,2.16796875,-0.093099976
2.177734375,-0.418061829,2.177734375,-0.09224968
2.1875,-0.417824936,2.1875,-0.093520546
2.197265625,-0.417903328,2.197265625,-0.092038536
2.20703125,-0.417882156,2.20703125,-0.091339302
2.216796875,-0.418044662,2.216796875,-0.092203903
2.2265625,-0.418256378,2.2265625,-0.093379784
2.236328125,-0.417892456,2.236328125,-0.094388008
2.24609375,-0.417979431,2.24609375,-0.093395805
2.255859375,-0.418104744,2.255859375,-0.093476486
2.265625,-0.41824894,2.265625,-0.094363403
2.275390625,-0.41796627,2.275390625,-0.09436512
2.28515625,-0.417975426,2.28515625,-0.093969727
2.294921875,-0.418125343,2.294921875,-0.093956566
2.3046875,-0.418014908,2.3046875,-0.095036888
2.314453125,-0.417827797,2.314453125,-0.095176506
2.32421875,-0.418038368,2.32421875,-0.094835472
2.333984375,-0.417938805,2.333984375,-0.095821953
2.34375,-0.418060684,2.34375,-0.095864868
2.353515625,-0.41817112,2.353515625,-0.09615097
2.36328125,-0.418195724,2.36328125,-0.096017647
2.373046875,-0.417886734,2.373046875,-0.096334076
2.3828125,-0.41825695,2.3828125,-0.095199966
2.392578125,-0.418024635,2.392578125,-0.092869377
2.40234375,-0.418010902,2.40234375,-0.092920303
2.412109375,-0.417971992,2.412109375,-0.091945839
2.421875,-0.418021202,2.421875,-0.089130592
2.431640625,-0.418064117,2.431640625,-0.087756729
2.44140625,-0.417840385,2.44140625,-0.085648727
2.451171875,-0.418066978,2.451171875,-0.084963226
2.4609375,-0.417912483,2.4609375,-0.081887627
2.470703125,-0.417882729,2.470703125,-0.079624557
2.48046875,-0.417985153,2.48046875,-0.07850647
2.490234375,-0.417929649,2.490234375,-0.076618767
2.5,-0.417745972,2.5,-0.072512627
2.509765625,-0.417776299,2.509765625,-0.069903946
2.51953125,-0.417888451,2.51953125,-0.068503189
2.529296875,-0.417681313,2.529296875,-0.066684151
2.5390625,-0.417771721,2.5390625,-0.064696884
2.548828125,-0.417699623,2.548828125,-0.061745453
2.55859375,-0.41766758,2.55859375,-0.058498192
2.568359375,-0.417620087,2.568359375,-0.057070541
2.578125,-0.417710495,2.578125,-0.054000092
2.587890625,-0.417648125,2.587890625,-0.051852608
2.59765625,-0.417684174,2.59765625,-0.049590111
2.607421875,-0.417549706,2.607421875,-0.049999237
2.6171875,-0.41770649,2.6171875,-0.046922493
2.626953125,-0.417542839,2.626953125,-0.046406364
2.63671875,-0.417568588,2.63671875,-0.045865059
2.646484375,-0.417459297,2.646484375,-0.043638039
2.65625,-0.41748333,2.65625,-0.042870712
2.666015625,-0.417501068,2.666015625,-0.042129707
2.67578125,-0.417673874,2.67578125,-0.041674805
2.685546875,-0.417594337,2.685546875,-0.039354515
2.6953125,-0.417581749,2.6953125,-0.038020134
2.705078125,-0.417341995,2.705078125,-0.037631607
2.71484375,-0.417498207,2.71484375,-0.036529541
2.724609375,-0.417460442,2.724609375,-0.034435272
2.734375,-0.417130852,2.734375,-0.034739685
2.744140625,-0.41748848,2.744140625,-0.032753563
2.75390625,-0.417360306,2.75390625,-0.0326231
2.763671875,-0.417250443,2.763671875,-0.032044029
2.7734375,-0.417381477,2.7734375,-0.031214905
2.783203125,-0.417454147,2.783203125,-0.030829239
2.79296875,-0.417247581,2.79296875,-0.031031227
2.802734375,-0.417491913,2.802734375,-0.029518318
2.8125,-0.417396927,2.8125,-0.02835331
2.822265625,-0.417355728,2.822265625,-0.028546143
2.83203125,-0.417508507,2.83203125,-0.028645134
2.841796875,-0.41744957,2.841796875,-0.027874374
2.8515625,-0.417251587,2.8515625,-0.029072571
2.861328125,-0.417333412,2.861328125,-0.028626823
2.87109375,-0.417394066,2.87109375,-0.027152824
2.880859375,-0.417492485,2.880859375,-0.029115486
2.890625,-0.417244148,2.890625,-0.027838898
2.900390625,-0.417428398,2.900390625,-0.028146744
2.91015625,-0.417385483,2.91015625,-0.027969933
2.919921875,-0.417485619,2.919921875,-0.027512741
2.9296875,-0.417534256,2.9296875,-0.029595566
2.939453125,-0.417262459,2.939453125,-0.029120064
2.94921875,-0.417336845,2.94921875,-0.029981232
2.958984375,-0.417378044,2.958984375,-0.03107357
2.96875,-0.41743927,2.96875,-0.030051041
2.978515625,-0.417385483,2.978515625,-0.031934738
2.98828125,-0.417500496,2.98828125,-0.032090378
2.998046875,-0.417435265,2.998046875,-0.032645416
3.0078125,-0.417350578,3.0078125,-0.034604073
3.017578125,-0.417495346,3.017578125,-0.035044098
3.02734375,-0.41742382,3.02734375,-0.035890388
3.037109375,-0.417610931,3.037109375,-0.036240005
3.046875,-0.417383194,3.046875,-0.035929871
3.056640625,-0.417457008,3.056640625,-0.037403297
3.06640625,-0.417554855,3.06640625,-0.038608932
3.076171875,-0.41741581,3.076171875,-0.040359306
3.0859375,-0.417516518,3.0859375,-0.041197014
3.095703125,-0.417379189,3.095703125,-0.041499138
3.10546875,-0.417515373,3.10546875,-0.041848755
3.115234375,-0.417578888,3.115234375,-0.044439697
3.125,-0.417419815,3.125,-0.046664429
3.134765625,-0.417717934,3.134765625,-0.049481392
3.14453125,-0.417592621,3.14453125,-0.050981712
3.154296875,-0.417491341,3.154296875,-0.051128197
3.1640625,-0.417671013,3.1640625,-0.052930069
3.173828125,-0.417597198,3.173828125,-0.055864334
3.18359375,-0.417553139,3.18359375,-0.056422234
3.193359375,-0.417847252,3.193359375,-0.058681297
3.203125,-0.41738205,3.203125,-0.060289764
3.212890625,-0.417765427,3.212890625,-0.062204933
3.22265625,-0.417633247,3.22265625,-0.063892937
3.232421875,-0.417822647,3.232421875,-0.06576519
3.2421875,-0.417728806,3.2421875,-0.068232536
3.251953125,-0.417695045,3.251953125,-0.068868828
3.26171875,-0.417791748,3.26171875,-0.070393181
3.271484375,-0.417802048,3.271484375,-0.071664619
3.28125,-0.417747116,3.28125,-0.07315979
3.291015625,-0.417829514,3.291015625,-0.076228523
3.30078125,-0.417790031,3.30078125,-0.077576637
3.310546875,-0.417892456,3.310546875,-0.080109787
3.3203125,-0.417843819,3.3203125,-0.083038902
3.330078125,-0.417931938,3.330078125,-0.083679771
3.33984375,-0.418123627,3.33984375,-0.083706093
3.349609375,-0.418028069,3.349609375,-0.08495636
3.359375,-0.417800903,3.359375,-0.085498238
3.369140625,-0.418046951,3.369140625,-0.084912872
3.37890625,-0.417881012,3.37890625,-0.084471703
3.388671875,-0.418012047,3.388671875,-0.085439873
3.3984375,-0.417836952,3.3984375,-0.083565903
3.408203125,-0.417830086,3.408203125,-0.082071304
3.41796875,-0.418030357,3.41796875,-0.081324005
3.427734375,-0.417829514,3.427734375,-0.080016518
3.4375,-0.417798615,3.4375,-0.079662323
3.447265625,-0.417789459,3.447265625,-0.077862167
3.45703125,-0.417741394,3.45703125,-0.078676987
3.466796875,-0.417877579,3.466796875,-0.074252701
3.4765625,-0.417790604,3.4765625,-0.073700523
3.486328125,-0.417938232,3.486328125,-0.072350121
3.49609375,-0.417853546,3.49609375,-0.070650101
3.505859375,-0.417941666,3.505859375,-0.068895149
3.515625,-0.417829514,3.515625,-0.068688011
3.525390625,-0.417770576,3.525390625,-0.065911674
3.53515625,-0.417675591,3.53515625,-0.064699173
3.544921875,-0.417634964,3.544921875,-0.062058449
3.5546875,-0.417576599,3.5546875,-0.061842155
3.564453125,-0.417704773,3.564453125,-0.059968758
3.57421875,-0.41779232,3.57421875,-0.059014893
3.583984375,-0.41729908,3.583984375,-0.059010315
3.59375,-0.417911911,3.59375,-0.056873131
3.603515625,-0.417711067,3.603515625,-0.056859398
3.61328125,-0.41781292,3.61328125,-0.056881142
3.623046875,-0.417603493,3.623046875,-0.056252289
3.6328125,-0.417495346,3.6328125,-0.056778145
3.642578125,-0.417584038,3.642578125,-0.055973625
3.65234375,-0.417737961,3.65234375,-0.053511429
3.662109375,-0.417514229,3.662109375,-0.054081345
3.671875,-0.417560577,3.671875,-0.051493835
3.681640625,-0.417817497,3.681640625,-0.051393127
3.69140625,-0.41751194,3.69140625,-0.050978851
3.701171875,-0.417346001,3.701171875,-0.05052681
3.7109375,-0.417578316,3.7109375,-0.049893951
3.720703125,-0.417586899,3.720703125,-0.048712921
3.73046875,-0.417563438,3.73046875,-0.048445129
3.740234375,-0.417658424,3.740234375,-0.048605347
3.75,-0.41769104,3.75,-0.04762001
3.759765625,-0.417378044,3.759765625,-0.04787693
3.76953125,-0.417590332,3.76953125,-0.04878273
3.779296875,-0.417686462,3.779296875,-0.048261452
3.7890625,-0.417708206,3.7890625,-0.047730446
3.798828125,-0.417634964,3.798828125,-0.048314095
3.80859375,-0.417576599,3.80859375,-0.048603058
3.818359375,-0.417578888,3.818359375,-0.050118828
3.828125,-0.417315102,3.828125,-0.049574089
3.837890625,-0.417432976,3.837890625,-0.051823425
3.84765625,-0.417466164,3.84765625,-0.051677513
3.857421875,-0.417615509,3.857421875,-0.052859116
3.8671875,-0.417655563,3.8671875,-0.05330143
3.876953125,-0.417387772,3.876953125,-0.05276413
3.88671875,-0.417630959,3.88671875,-0.055306435
3.896484375,-0.417669868,3.896484375,-0.054607773
3.90625,-0.417740822,3.90625,-0.055362511
3.916015625,-0.417391205,3.916015625,-0.055517578
3.92578125,-0.417577171,3.92578125,-0.055797958
3.935546875,-0.417575455,3.935546875,-0.058247566
3.9453125,-0.417823792,3.9453125,-0.0578722
3.955078125,-0.417630386,3.955078125,-0.059946442
3.96484375,-0.417794609,3.96484375,-0.060524368
3.974609375,-0.41800518,3.974609375,-0.060738373
3.984375,-0.417709923,3.984375,-0.063162231
3.994140625,-0.417818642,3.994140625,-0.064209938
4.00390625,-0.417625809,4.00390625,-0.064359283
4.013671875,-0.417786026,4.013671875,-0.065531158
4.0234375,-0.417359734,4.0234375,-0.068170166
4.033203125,-0.417883301,4.033203125,-0.067050362
4.04296875,-0.417828369,4.04296875,-0.068611908
4.052734375,-0.417807198,4.052734375,-0.070360565
4.0625,-0.41776886,4.0625,-0.070755959
4.072265625,-0.417875862,4.072265625,-0.071970749
4.08203125,-0.417805481,4.08203125,-0.07404213
4.091796875,-0.417682457,4.091796875,-0.075403976
4.1015625,-0.417929649,4.1015625,-0.076150703
4.111328125,-0.417864418,4.111328125,-0.077701378
4.12109375,-0.417878723,4.12109375,-0.079282379
4.130859375,-0.417704201,4.130859375,-0.080466843
4.140625,-0.418092155,4.140625,-0.081046486
4.150390625,-0.417964554,4.150390625,-0.084023094
4.16015625,-0.41791935,4.16015625,-0.084936333
4.169921875,-0.417974281,4.169921875,-0.086291885
4.1796875,-0.417931366,4.1796875,-0.087737846
4.189453125,-0.417765427,4.189453125,-0.09036541
4.19921875,-0.417916489,4.19921875,-0.091033745
4.208984375,-0.417931938,4.208984375,-0.092516899
4.21875,-0.418076706,4.21875,-0.095050049
4.228515625,-0.418169975,4.228515625,-0.097045898
4.23828125,-0.418123055,4.23828125,-0.097801781
4.248046875,-0.41817627,4.248046875,-0.099337006
4.2578125,-0.418095016,4.2578125,-0.101507378
4.267578125,-0.418203163,4.267578125,-0.102940178
4.27734375,-0.418301582,4.27734375,-0.103450012
4.287109375,-0.418026924,4.287109375,-0.10621891
4.296875,-0.418278694,4.296875,-0.108563805
4.306640625,-0.418108749,4.306640625,-0.109438133
4.31640625,-0.41837368,4.31640625,-0.111171913
4.326171875,-0.418133354,4.326171875,-0.11553669
4.3359375,-0.418105316,4.3359375,-0.117106247
4.345703125,-0.418214035,4.345703125,-0.119266891
4.35546875,-0.418134499,4.35546875,-0.121012688
4.365234375,-0.418125343,4.365234375,-0.121497917
4.375,-0.418481827,4.375,-0.123612213
4.384765625,-0.418444633,4.384765625,-0.122338486
4.39453125,-0.418387413,4.39453125,-0.121592903
4.404296875,-0.418482399,4.404296875,-0.122733307
4.4140625,-0.418160248,4.4140625,-0.121830368
4.423828125,-0.418424034,4.423828125,-0.120575523
4.43359375,-0.418240356,4.43359375,-0.119535255
4.443359375,-0.41863575,4.443359375,-0.117962837
4.453125,-0.418263817,4.453125,-0.116174698
4.462890625,-0.418232346,4.462890625,-0.115103531
4.47265625,-0.418157959,4.47265625,-0.113281631
4.482421875,-0.418222046,4.482421875,-0.111454582
4.4921875,-0.418035507,4.4921875,-0.109245872
4.501953125,-0.418057823,4.501953125,-0.107632256
4.51171875,-0.417895317,4.51171875,-0.105241013
4.521484375,-0.418036079,4.521484375,-0.101543427
4.53125,-0.418008041,4.53125,-0.100532913
4.541015625,-0.418095016,4.541015625,-0.098144531
4.55078125,-0.418018913,4.55078125,-0.095765305
4.560546875,-0.418117905,4.560546875,-0.093351173
4.5703125,-0.418129921,4.5703125,-0.090429497
4.580078125,-0.418114471,4.580078125,-0.085553741
4.58984375,-0.417704201,4.58984375,-0.084584427
4.599609375,-0.417823219,4.599609375,-0.082414055
4.609375,-0.417955399,4.609375,-0.079995346
4.619140625,-0.417763138,4.619140625,-0.076638794
4.62890625,-0.417941666,4.62890625,-0.075188255
4.638671875,-0.417692757,4.638671875,-0.073008728
4.6484375,-0.417600632,4.6484375,-0.070882988
4.658203125,-0.417786598,4.658203125,-0.069957733
4.66796875,-0.417883873,4.66796875,-0.069459915
4.677734375,-0.417844391,4.677734375,-0.066435242
4.6875,-0.417545128,4.6875,-0.063894081
4.697265625,-0.417809486,4.697265625,-0.063444901
4.70703125,-0.417601776,4.70703125,-0.060671425
4.716796875,-0.417607498,4.716796875,-0.058664131
4.7265625,-0.417452431,4.7265625,-0.057134056
4.736328125,-0.417599487,4.736328125,-0.054442978
4.74609375,-0.417806625,4.74609375,-0.052818489
4.755859375,-0.417641258,4.755859375,-0.050198936
4.765625,-0.417563438,4.765625,-0.047666931
4.775390625,-0.417533684,4.775390625,-0.043704987
4.78515625,-0.417664146,4.78515625,-0.04342289
4.794921875,-0.417451286,4.794921875,-0.041693687
4.8046875,-0.417671585,4.8046875,-0.039417458
4.814453125,-0.417538261,4.814453125,-0.038481331
4.82421875,-0.417497635,4.82421875,-0.037548065
4.833984375,-0.417606926,4.833984375,-0.035656929
4.84375,-0.417489624,4.84375,-0.034673309
4.853515625,-0.417479324,4.853515625,-0.034182358
4.86328125,-0.417265892,4.86328125,-0.031938744
4.873046875,-0.417537117,4.873046875,-0.030259323
4.8828125,-0.417308807,4.8828125,-0.028555298
4.892578125,-0.417486763,4.892578125,-0.027132797
4.90234375,-0.417679024,4.90234375,-0.025788689
4.912109375,-0.4173666,4.912109375,-0.025579262
4.921875,-0.41727047,4.921875,-0.025230217
4.931640625,-0.417092514,4.931640625,-0.022816086
4.94140625,-0.417252159,4.94140625,-0.022831535
4.951171875,-0.417302513,4.951171875,-0.021501732
4.9609375,-0.417197227,4.9609375,-0.021699715
4.970703125,-0.417327118,4.970703125,-0.020653725
4.98046875,-0.417277908,4.98046875,-0.020621109
4.990234375,-0.417339706,4.990234375,-0.02007122
5,-0.417387199,5,-0.019599152
5.009765625,-0.417276764,5.009765625,-0.018857002
5.01953125,-0.41733284,5.01953125,-0.018577194
5.029296875,-0.417268753,5.029296875,-0.01826992
5.0390625,-0.417353439,5.0390625,-0.01677475
5.048828125,-0.417334557,5.048828125,-0.015875244
5.05859375,-0.417282486,5.05859375,-0.016842842
5.068359375,-0.417184639,5.068359375,-0.015783119
5.078125,-0.417157745,5.078125,-0.014409828
5.087890625,-0.417557144,5.087890625,-0.01411171
5.09765625,-0.417233849,5.09765625,-0.015441513
5.107421875,-0.417232132,5.107421875,-0.012946701
5.1171875,-0.417262459,5.1171875,-0.013719749
5.126953125,-0.417311668,5.126953125,-0.012931824
5.13671875,-0.417159462,5.13671875,-0.013080025
5.146484375,-0.417330551,5.146484375,-0.013900566
5.15625,-0.417174911,5.15625,-0.01301651
5.166015625,-0.417212105,5.166015625,-0.013121796
5.17578125,-0.417109108,5.17578125,-0.012109566
5.185546875,-0.417113113,5.185546875,-0.012922668
5.1953125,-0.417379189,5.1953125,-0.012336731
5.205078125,-0.417261314,5.205078125,-0.011301041
5.21484375,-0.417188072,5.21484375,-0.012172508
5.224609375,-0.417222977,5.224609375,-0.012062073
5.234375,-0.416971779,5.234375,-0.012588501
5.244140625,-0.417414093,5.244140625,-0.012751007
5.25390625,-0.417132568,5.25390625,-0.011690712
5.263671875,-0.41719265,5.263671875,-0.012460899
5.2734375,-0.417307091,5.2734375,-0.012230873
5.283203125,-0.417263603,5.283203125,-0.012526131
5.29296875,-0.417250443,5.29296875,-0.012448883
5.302734375,-0.417273331,5.302734375,-0.011325073
5.3125,-0.417044449,5.3125,-0.012804222
5.322265625,-0.417285919,5.322265625,-0.013599014
5.33203125,-0.417279053,5.33203125,-0.014311981
5.341796875,-0.417365456,5.341796875,-0.013862801
5.3515625,-0.417358589,5.3515625,-0.01505127
5.361328125,-0.417214966,5.361328125,-0.014903641
5.37109375,-0.417232132,5.37109375,-0.015600014
5.380859375,-0.417245293,5.380859375,-0.016785049
5.390625,-0.417150879,5.390625,-0.016444016
5.400390625,-0.416785812,5.400390625,-0.018271637
5.41015625,-0.417255592,5.41015625,-0.017227936
5.419921875,-0.417307091,5.419921875,-0.018512535
5.4296875,-0.417189789,5.4296875,-0.018476486
5.439453125,-0.417150879,5.439453125,-0.018903351
5.44921875,-0.417372894,5.44921875,-0.018235016
5.458984375,-0.417263031,5.458984375,-0.017618179
5.46875,-0.41715889,5.46875,-0.015295029
5.478515625,-0.417212677,5.478515625,-0.01553936
5.48828125,-0.417360878,5.48828125,-0.011466408
5.498046875,-0.417254448,5.498046875,-0.010687637
5.5078125,-0.417291069,5.5078125,-0.007784843
5.517578125,-0.417254448,5.517578125,-0.004972458
5.52734375,-0.417095947,5.52734375,-0.002099419
5.537109375,-0.41694088,5.537109375,0.001997566
5.546875,-0.416771507,5.546875,0.003755951
5.556640625,-0.417061615,5.556640625,0.006927109
5.56640625,-0.416999245,5.56640625,0.00995121
5.576171875,-0.416869926,5.576171875,0.012638283
5.5859375,-0.416858482,5.5859375,0.016148186
5.595703125,-0.417163467,5.595703125,0.018642998
5.60546875,-0.416924286,5.60546875,0.020901489
5.615234375,-0.416718292,5.615234375,0.024116135
5.625,-0.416882515,5.625,0.027347946
5.634765625,-0.41674633,5.634765625,0.032123566
5.64453125,-0.41676693,5.64453125,0.034645844
5.654296875,-0.416699409,5.654296875,0.037493134
5.6640625,-0.416568947,5.6640625,0.040200806
5.673828125,-0.416867065,5.673828125,0.044682312
5.68359375,-0.41670742,5.68359375,0.046188354
5.693359375,-0.416864777,5.693359375,0.047731018
5.703125,-0.416535759,5.703125,0.052129555
5.712890625,-0.416590691,5.712890625,0.052572441
5.72265625,-0.416573524,5.72265625,0.055762482
5.732421875,-0.416574669,5.732421875,0.058366585
5.7421875,-0.416563797,5.7421875,0.05953846
5.751953125,-0.416407013,5.751953125,0.062746239
5.76171875,-0.416391563,5.76171875,0.063769913
5.771484375,-0.416409874,5.771484375,0.067147064
5.78125,-0.416556931,5.78125,0.07023468
5.791015625,-0.416493416,5.791015625,0.071365356
5.80078125,-0.41647625,5.80078125,0.072627068
5.810546875,-0.416431046,5.810546875,0.074505615
5.8203125,-0.416188431,5.8203125,0.077525711
5.830078125,-0.416356087,5.830078125,0.080843353
5.83984375,-0.416410446,5.83984375,0.081535149
5.849609375,-0.416401291,5.849609375,0.082610321
5.859375,-0.416207314,5.859375,0.084905434
5.869140625,-0.416273689,5.869140625,0.084381866
5.87890625,-0.416373253,5.87890625,0.086714172
5.888671875,-0.416265106,5.888671875,0.087092972
5.8984375,-0.41631031,5.8984375,0.089622688
5.908203125,-0.416374397,5.908203125,0.089463615
5.91796875,-0.41618557,5.91796875,0.090820885
5.927734375,-0.416184998,5.927734375,0.092029381
5.9375,-0.416206741,5.9375,0.093770027
5.947265625,-0.416326904,5.947265625,0.093427277
5.95703125,-0.416241646,5.95703125,0.094450378
5.966796875,-0.416245079,5.966796875,0.095028305
5.9765625,-0.416374969,5.9765625,0.095750999
5.986328125,-0.416073418,5.986328125,0.098085594
5.99609375,-0.416172981,5.99609375,0.097833252
6.005859375,-0.416270256,6.005859375,0.098737907
6.015625,-0.416159821,6.015625,0.100057983
6.025390625,-0.415974426,6.025390625,0.100266266
6.03515625,-0.416193581,6.03515625,0.099660873
6.044921875,-0.416193008,6.044921875,0.101140022
6.0546875,-0.416210747,6.0546875,0.100502014
6.064453125,-0.416201591,6.064453125,0.101312828
6.07421875,-0.416217041,6.07421875,0.101772881
6.083984375,-0.416234207,6.083984375,0.103531265
6.09375,-0.416119766,6.09375,0.102329063
6.103515625,-0.416016197,6.103515625,0.10189991
6.11328125,-0.416323471,6.11328125,0.100758934
6.123046875,-0.416061974,6.123046875,0.101926804
6.1328125,-0.416075134,6.1328125,0.100463676
6.142578125,-0.416311455,6.142578125,0.099660301
6.15234375,-0.416031647,6.15234375,0.101271057
6.162109375,-0.416099739,6.162109375,0.100215912
6.171875,-0.416295433,6.171875,0.100302315
6.181640625,-0.416211891,6.181640625,0.099688339
6.19140625,-0.416219902,6.19140625,0.099446869
6.201171875,-0.416317749,6.201171875,0.096231651
6.2109375,-0.416280556,6.2109375,0.096163559
6.220703125,-0.416189003,6.220703125,0.095326424
6.23046875,-0.416075706,6.23046875,0.094802856
6.240234375,-0.416328049,6.240234375,0.094613457
6.25,-0.416357803,6.25,0.094330215
6.259765625,-0.416050529,6.259765625,0.092893982
6.26953125,-0.416041946,6.26953125,0.092420769
6.279296875,-0.41628685,6.279296875,0.091513252
6.2890625,-0.416337776,6.2890625,0.089919662
6.298828125,-0.416332626,6.298828125,0.090099335
6.30859375,-0.41639328,6.30859375,0.089660454
6.318359375,-0.416339493,6.318359375,0.087207985
6.328125,-0.416405296,6.328125,0.086866951
6.337890625,-0.416262817,6.337890625,0.085400963
6.34765625,-0.416207886,6.34765625,0.08491745
6.357421875,-0.416294289,6.357421875,0.084214211
6.3671875,-0.416293144,6.3671875,0.082955933
6.376953125,-0.416338921,6.376953125,0.080881119
6.38671875,-0.416327477,6.38671875,0.077647018
6.396484375,-0.416201591,6.396484375,0.077667046
6.40625,-0.416387558,6.40625,0.076906013
6.416015625,-0.416354942,6.416015625,0.075187683
6.42578125,-0.416437912,6.42578125,0.074728775
6.435546875,-0.416523743,6.435546875,0.074296761
6.4453125,-0.416318893,6.4453125,0.073040199
6.455078125,-0.416433907,6.455078125,0.073047638
6.46484375,-0.416464233,6.46484375,0.074836349
6.474609375,-0.416408157,6.474609375,0.075562477
6.484375,-0.416420746,6.484375,0.074485588
6.494140625,-0.416566658,6.494140625,0.076010513
6.50390625,-0.416592407,6.50390625,0.077554893
6.513671875,-0.416338348,6.513671875,0.079511261
6.5234375,-0.416341209,6.5234375,0.081440163
6.533203125,-0.416334915,6.533203125,0.083455467
6.54296875,-0.416301155,6.54296875,0.085659599
6.552734375,-0.416206741,6.552734375,0.087704659
6.5625,-0.416248512,6.5625,0.089975166
6.572265625,-0.41621933,6.572265625,0.090651512
6.58203125,-0.416241074,6.58203125,0.093795204
6.591796875,-0.415897179,6.591796875,0.095344162
6.6015625,-0.416175842,6.6015625,0.098242378
6.611328125,-0.416152382,6.611328125,0.101597214
6.62109375,-0.416011047,6.62109375,0.102658081
6.630859375,-0.416147232,6.630859375,0.106118774
6.640625,-0.415720367,6.640625,0.107092667
6.650390625,-0.41613636,6.650390625,0.108404732
6.66015625,-0.415940666,6.66015625,0.11109581
6.669921875,-0.415907478,6.669921875,0.112763786
6.6796875,-0.416113472,6.6796875,0.112541771
6.689453125,-0.416138077,6.689453125,0.115067482
6.69921875,-0.415900612,6.69921875,0.115384483
6.708984375,-0.416070557,6.708984375,0.116222191
6.71875,-0.415983582,6.71875,0.117277336
6.728515625,-0.415987015,6.728515625,0.11819973
6.73828125,-0.415858841,6.73828125,0.121198082
6.748046875,-0.415969276,6.748046875,0.122100449
6.7578125,-0.416005325,6.7578125,0.122840309
6.767578125,-0.415915489,6.767578125,0.123796463
6.77734375,-0.415839958,6.77734375,0.125488472
6.787109375,-0.415868568,6.787109375,0.127304649
6.796875,-0.415996742,6.796875,0.127799034
6.806640625,-0.415876007,6.806640625,0.128569794
6.81640625,-0.415815353,6.81640625,0.130322456
6.826171875,-0.415815926,6.826171875,0.130630302
6.8359375,-0.4157444,6.8359375,0.132374382
6.845703125,-0.41587944,6.845703125,0.132224464
6.85546875,-0.415781021,6.85546875,0.131873703
6.865234375,-0.415543556,6.865234375,0.134263802
6.875,-0.416016197,6.875,0.133949661
6.884765625,-0.415995026,6.884765625,0.13427639
6.89453125,-0.415790749,6.89453125,0.134571075
6.904296875,-0.415831947,6.904296875,0.134984779
6.9140625,-0.415667152,6.9140625,0.135063744
6.923828125,-0.415880585,6.923828125,0.134666061
6.93359375,-0.415738678,6.93359375,0.133580017
6.943359375,-0.415857697,6.943359375,0.133958817
6.953125,-0.415831375,6.953125,0.134736443
6.962890625,-0.415904045,6.962890625,0.134677505
6.97265625,-0.415829659,6.97265625,0.13461628
6.982421875,-0.415653992,6.982421875,0.133963394
6.9921875,-0.415834808,6.9921875,0.135752106
7.001953125,-0.415779305,7.001953125,0.134621429
7.01171875,-0.415729523,7.01171875,0.133720207
7.021484375,-0.415880585,7.021484375,0.132756615
7.03125,-0.415758133,7.03125,0.133031273
7.041015625,-0.41578331,7.041015625,0.132793808
7.05078125,-0.415555,7.05078125,0.134065247
7.060546875,-0.415829086,7.060546875,0.132142067
7.0703125,-0.415753555,7.0703125,0.131518936
7.080078125,-0.415751266,7.080078125,0.130784225
7.08984375,-0.415900612,7.08984375,0.130962181
7.099609375,-0.415954399,7.099609375,0.129794312
7.109375,-0.415857124,7.109375,0.129674149
7.119140625,-0.416024208,7.119140625,0.129159737
7.12890625,-0.416033936,7.12890625,0.128378105
7.138671875,-0.415855408,7.138671875,0.128058243
7.1484375,-0.415763855,7.1484375,0.126408005
7.158203125,-0.415929794,7.158203125,0.125844955
7.16796875,-0.415881157,7.16796875,0.125240707
7.177734375,-0.416007614,7.177734375,0.123726082
7.1875,-0.4159132,7.1875,0.122120476
7.197265625,-0.416160393,7.197265625,0.122229195
7.20703125,-0.41595726,7.20703125,0.119927216
7.216796875,-0.41598587,7.216796875,0.119875145
7.2265625,-0.415917206,7.2265625,0.1189785
7.236328125,-0.416110611,7.236328125,0.117144012
7.24609375,-0.41602478,7.24609375,0.115763855
7.255859375,-0.41593895,7.255859375,0.114442062
7.265625,-0.416005898,7.265625,0.113326836
7.275390625,-0.416033363,7.275390625,0.112586403
7.28515625,-0.416175842,7.28515625,0.110821724
7.294921875,-0.415977859,7.294921875,0.109007263
7.3046875,-0.416135788,7.3046875,0.107402802
7.314453125,-0.416039085,7.314453125,0.106147957
7.32421875,-0.415866852,7.32421875,0.103692055
7.333984375,-0.416158676,7.333984375,0.102805138
7.34375,-0.416056824,7.34375,0.102137947
7.353515625,-0.41617527,7.353515625,0.100323486
7.36328125,-0.415862846,7.36328125,0.097892761
7.373046875,-0.416162109,7.373046875,0.09706707
7.3828125,-0.41619873,7.3828125,0.095733833
7.392578125,-0.416136932,7.392578125,0.094330215
7.40234375,-0.416080284,7.40234375,0.091950989
7.412109375,-0.416135216,7.412109375,0.089043617
7.421875,-0.416317749,7.421875,0.086164284
7.431640625,-0.416339493,7.431640625,0.085183525
7.44140625,-0.416223907,7.44140625,0.08435154
7.451171875,-0.416362381,7.451171875,0.083732986
7.4609375,-0.416249084,7.4609375,0.083386803
7.470703125,-0.416216469,7.470703125,0.082914162
7.48046875,-0.416322899,7.48046875,0.082812309
7.490234375,-0.4162714,7.490234375,0.084225082
7.5,-0.416025925,7.5,0.086123657
7.509765625,-0.416287422,7.509765625,0.088231659
7.51953125,-0.416246796,7.51953125,0.089752579
7.529296875,-0.416135216,7.529296875,0.091535568
7.5390625,-0.41621418,7.5390625,0.095060349
7.548828125,-0.41617527,7.548828125,0.095656013
7.55859375,-0.416225052,7.55859375,0.100341797
7.568359375,-0.416208458,7.568359375,0.10428772
7.578125,-0.416391563,7.578125,0.10672245
7.587890625,-0.415901756,7.587890625,0.109820366
7.59765625,-0.416070557,7.59765625,0.112427902
7.607421875,-0.416004753,7.607421875,0.114834595
7.6171875,-0.416033936,7.6171875,0.118337631
7.626953125,-0.415901184,7.626953125,0.120942307
7.63671875,-0.415834236,7.63671875,0.124333763
7.646484375,-0.415760994,7.646484375,0.127346992
7.65625,-0.415805054,7.65625,0.130698395
7.666015625,-0.415747833,7.666015625,0.135989571
7.67578125,-0.415646553,7.67578125,0.14000988
7.685546875,-0.415811348,7.685546875,0.143863678
7.6953125,-0.415584183,7.6953125,0.146240616
7.705078125,-0.415945816,7.705078125,0.149065018
7.71484375,-0.415599632,7.71484375,0.151064301
7.724609375,-0.415637398,7.724609375,0.153263855
7.734375,-0.415588188,7.734375,0.15577755
7.744140625,-0.41567173,7.744140625,0.157242966
7.75390625,-0.415599632,7.75390625,0.158465767
7.763671875,-0.415442848,7.763671875,0.161188316
7.7734375,-0.415228271,7.7734375,0.163992119
7.783203125,-0.415537262,7.783203125,0.165602875
7.79296875,-0.415502357,7.79296875,0.169614029
7.802734375,-0.41568718,7.802734375,0.1718153
7.8125,-0.415237427,7.8125,0.174897766
7.822265625,-0.415463448,7.822265625,0.177953339
7.83203125,-0.415229416,7.83203125,0.18145752
7.841796875,-0.415054893,7.841796875,0.182320404
7.8515625,-0.415420532,7.8515625,0.185749626
7.861328125,-0.415295219,7.861328125,0.18787365
7.87109375,-0.415322113,7.87109375,0.190259743
7.880859375,-0.415133286,7.880859375,0.192217827
7.890625,-0.414919281,7.890625,0.194662285
7.900390625,-0.415329552,7.900390625,0.195920563
7.91015625,-0.415363884,7.91015625,0.19733448
7.919921875,-0.415184212,7.919921875,0.199035072
7.9296875,-0.415175629,7.9296875,0.201694679
7.939453125,-0.415070343,7.939453125,0.203011322
7.94921875,-0.415377045,7.94921875,0.204824066
7.958984375,-0.415283203,7.958984375,0.206192207
7.96875,-0.415077209,7.96875,0.208936501
7.978515625,-0.415074921,7.978515625,0.210076332
7.98828125,-0.414980507,7.98828125,0.211852455
7.998046875,-0.414831734,7.998046875,0.213232613
8.0078125,-0.415132713,8.0078125,0.214286041
8.017578125,-0.415128136,8.017578125,0.214909172
8.02734375,-0.415032578,8.02734375,0.216409492
8.037109375,-0.415069199,8.037109375,0.217230606
8.046875,-0.414902115,8.046875,0.217791367
8.056640625,-0.415324974,8.056640625,0.219400406
8.06640625,-0.414975929,8.06640625,0.221495819
8.076171875,-0.415065193,8.076171875,0.221143913
8.0859375,-0.415017128,8.0859375,0.221598816
8.095703125,-0.414873505,8.095703125,0.22206459
8.10546875,-0.415089226,8.10546875,0.223903656
8.115234375,-0.415054321,8.115234375,0.224977684
8.125,-0.414941025,8.125,0.226011086
8.134765625,-0.414872932,8.134765625,0.226244545
8.14453125,-0.414958763,8.14453125,0.225538445
8.154296875,-0.414963341,8.154296875,0.22637558
8.1640625,-0.414672089,8.1640625,0.226337814
8.173828125,-0.414953041,8.173828125,0.2264431
8.18359375,-0.415193367,8.18359375,0.227230453
8.193359375,-0.414773369,8.193359375,0.228224373
8.203125,-0.415015411,8.203125,0.22869072
8.212890625,-0.414852905,8.212890625,0.229364204
8.22265625,-0.414935875,8.22265625,0.229054642
8.232421875,-0.414721298,8.232421875,0.230266571
8.2421875,-0.415149879,8.2421875,0.231417847
8.251953125,-0.414822578,8.251953125,0.230753517
8.26171875,-0.414769363,8.26171875,0.231501961
8.271484375,-0.414867783,8.271484375,0.230094337
8.28125,-0.414953041,8.28125,0.230457115
8.291015625,-0.414919281,8.291015625,0.231258202
8.30078125,-0.414908981,8.30078125,0.230831337
8.310546875,-0.414970779,8.310546875,0.231280518
8.3203125,-0.41486721,8.3203125,0.231806374
8.330078125,-0.414771652,8.330078125,0.231783485
8.33984375,-0.414792252,8.33984375,0.230652809
8.349609375,-0.414875793,8.349609375,0.23024826
8.359375,-0.415023994,8.359375,0.23022995
8.369140625,-0.415101242,8.369140625,0.229976463
8.37890625,-0.414687538,8.37890625,0.229254341
8.388671875,-0.414935303,8.388671875,0.230882263
8.3984375,-0.414661217,8.3984375,0.229739571
8.408203125,-0.41482029,8.408203125,0.228964233
8.41796875,-0.414935303,8.41796875,0.228790855
8.427734375,-0.414903259,8.427734375,0.228655815
8.4375,-0.415053177,8.4375,0.228443527
8.447265625,-0.414942169,8.447265625,0.227779198
8.45703125,-0.414943314,8.45703125,0.227451324
8.466796875,-0.414990807,8.466796875,0.226519203
8.4765625,-0.415356445,8.4765625,0.225389671
8.486328125,-0.415003967,8.486328125,0.225617981
8.49609375,-0.414846611,8.49609375,0.222746658
8.505859375,-0.41491642,8.505859375,0.223433876
8.515625,-0.414975929,8.515625,0.223904228
8.525390625,-0.414920998,8.525390625,0.222240257
8.53515625,-0.415028572,8.53515625,0.22199192
8.544921875,-0.414879227,8.544921875,0.223303413
8.5546875,-0.41496048,8.5546875,0.222758102
8.564453125,-0.41490097,8.564453125,0.22519455
8.57421875,-0.414994812,8.57421875,0.22788105
8.583984375,-0.415217972,8.583984375,0.227794647
8.59375,-0.414763069,8.59375,0.229512405
8.603515625,-0.415078354,8.603515625,0.231456757
8.61328125,-0.414777374,8.61328125,0.233655739
8.623046875,-0.414773369,8.623046875,0.236754799
8.6328125,-0.4148283,8.6328125,0.240116501
8.642578125,-0.414741898,8.642578125,0.244249535
8.65234375,-0.414818573,8.65234375,0.245406532
8.662109375,-0.414652634,8.662109375,0.248915291
8.671875,-0.414449501,8.671875,0.252244949
8.681640625,-0.414670944,8.681640625,0.254393005
8.69140625,-0.414535904,8.69140625,0.258241653
8.701171875,-0.414638329,8.701171875,0.261078644
8.7109375,-0.414628029,8.7109375,0.264773941
8.720703125,-0.414352226,8.720703125,0.267787743
8.73046875,-0.41443634,8.73046875,0.271965981
8.740234375,-0.414523888,8.740234375,0.275341415
8.75,-0.414421463,8.75,0.278443909
8.759765625,-0.414424324,8.759765625,0.280059242
8.76953125,-0.414448929,8.76953125,0.281957245
8.779296875,-0.414411163,8.779296875,0.28493557
8.7890625,-0.414330482,8.7890625,0.287892723
8.798828125,-0.414381981,8.798828125,0.290838432
8.80859375,-0.414525032,8.80859375,0.29226265
8.818359375,-0.414227486,8.818359375,0.293357849
8.828125,-0.414409447,8.828125,0.295435524
8.837890625,-0.414146233,8.837890625,0.298318863
8.84765625,-0.414474678,8.84765625,0.299472427
8.857421875,-0.414109612,8.857421875,0.300906372
8.8671875,-0.414133072,8.8671875,0.303449821
8.876953125,-0.414237785,8.876953125,0.30424633
8.88671875,-0.414171982,8.88671875,0.308050919
8.896484375,-0.413953972,8.896484375,0.309896278
8.90625,-0.414130783,8.90625,0.311818886
8.916015625,-0.414198303,8.916015625,0.313692856
8.92578125,-0.41413765,8.92578125,0.315479851
8.935546875,-0.414143372,8.935546875,0.31615448
8.9453125,-0.413955116,8.9453125,0.317243958
8.955078125,-0.413905334,8.955078125,0.320409393
8.96484375,-0.414012337,8.96484375,0.319672394
8.974609375,-0.413912773,8.974609375,0.32066803
8.984375,-0.414091301,8.984375,0.321790695
8.994140625,-0.413926506,8.994140625,0.322932816
9.00390625,-0.414008904,9.00390625,0.324331856
9.013671875,-0.414162827,9.013671875,0.325616455
9.0234375,-0.413745689,9.0234375,0.326582336
9.033203125,-0.413940811,9.033203125,0.327692986
9.04296875,-0.413994598,9.04296875,0.327533913
9.052734375,-0.413770866,9.052734375,0.329084587
9.0625,-0.413884735,9.0625,0.32918129
9.072265625,-0.414020348,9.072265625,0.329627609
9.08203125,-0.413954544,9.08203125,0.330844116
9.091796875,-0.413776016,9.091796875,0.331234932
9.1015625,-0.413800621,9.1015625,0.330990601
9.111328125,-0.413893318,9.111328125,0.333455658
9.12109375,-0.413929367,9.12109375,0.331863213
9.130859375,-0.413848686,9.130859375,0.332564163
9.140625,-0.414040947,9.140625,0.332997894
9.150390625,-0.413833237,9.150390625,0.333762932
9.16015625,-0.413772583,9.16015625,0.332570457
9.169921875,-0.414008331,9.169921875,0.333171844
9.1796875,-0.413896179,9.1796875,0.333102036
9.189453125,-0.414015198,9.189453125,0.333086586
9.19921875,-0.41388588,9.19921875,0.332141876
9.208984375,-0.413916779,9.208984375,0.333056259
9.21875,-0.413967705,9.21875,0.332631111
9.228515625,-0.414148521,9.228515625,0.334470749
9.23828125,-0.413871574,9.23828125,0.332771873
9.248046875,-0.413897896,9.248046875,0.332456589
9.2578125,-0.413856697,9.2578125,0.331886673
9.267578125,-0.414100456,9.267578125,0.331744194
9.27734375,-0.414149094,9.27734375,0.333340073
9.287109375,-0.413784027,9.287109375,0.331728745
9.296875,-0.414147949,9.296875,0.331782532
9.306640625,-0.414006615,9.306640625,0.330119133
9.31640625,-0.414006042,9.31640625,0.329153252
9.326171875,-0.413732529,9.326171875,0.330151176
9.3359375,-0.413731956,9.3359375,0.3288517
9.345703125,-0.414024925,9.345703125,0.327578545
9.35546875,-0.414041519,9.35546875,0.327060699
9.365234375,-0.41398201,9.365234375,0.327687263
9.375,-0.413989449,9.375,0.326143456
9.384765625,-0.414040375,9.384765625,0.325303459
9.39453125,-0.414006042,9.39453125,0.324444008
9.404296875,-0.414131355,9.404296875,0.324656868
9.4140625,-0.41408844,9.4140625,0.32303009
9.423828125,-0.414052391,9.423828125,0.322580338
9.43359375,-0.414142227,9.43359375,0.321135521
9.443359375,-0.414052391,9.443359375,0.319215202
9.453125,-0.413840103,9.453125,0.317964363
9.462890625,-0.414011765,9.462890625,0.317456245
9.47265625,-0.413879013,9.47265625,0.317614174
9.482421875,-0.414208031,9.482421875,0.315969658
9.4921875,-0.413956261,9.4921875,0.31671524
9.501953125,-0.414031792,9.501953125,0.314457321
9.51171875,-0.414039803,9.51171875,0.312848854
9.521484375,-0.414305305,9.521484375,0.311637497
9.53125,-0.41402607,9.53125,0.309991264
9.541015625,-0.414216042,9.541015625,0.307686996
9.55078125,-0.414115906,9.55078125,0.308161354
9.560546875,-0.41418457,9.560546875,0.306476212
9.5703125,-0.414165115,9.5703125,0.30638237
9.580078125,-0.41379261,9.580078125,0.304526138
9.58984375,-0.414162827,9.58984375,0.306223297
9.599609375,-0.414233208,9.599609375,0.307025528
9.609375,-0.414226913,9.609375,0.306980896
9.619140625,-0.414315605,9.619140625,0.3086689
9.62890625,-0.414159966,9.62890625,0.308568764
9.638671875,-0.414106178,9.638671875,0.308908081
9.6484375,-0.414070129,9.6484375,0.311381721
9.658203125,-0.414245796,9.658203125,0.313152122
9.66796875,-0.414050674,9.66796875,0.312889481
9.677734375,-0.414333916,9.677734375,0.313651657
9.6875,-0.414100456,9.6875,0.316259193
9.697265625,-0.414002609,9.697265625,0.318372917
9.70703125,-0.414116478,9.70703125,0.319342232
9.716796875,-0.413709068,9.716796875,0.322709656
9.7265625,-0.414562225,9.7265625,0.323394012
9.736328125,-0.414127922,9.736328125,0.326049042
9.74609375,-0.41397686,9.74609375,0.32752533
9.755859375,-0.413957405,9.755859375,0.328899193
9.765625,-0.413837814,9.765625,0.330794334
9.775390625,-0.41397171,9.775390625,0.330937386
9.78515625,-0.414008904,9.78515625,0.333153534
9.794921875,-0.413738823,9.794921875,0.334810638
9.8046875,-0.413792038,9.8046875,0.335647774
9.814453125,-0.413901901,9.814453125,0.336090088
9.82421875,-0.413649559,9.82421875,0.336734962
9.833984375,-0.41384697,9.833984375,0.337578392
9.84375,-0.413749695,9.84375,0.337800407
9.853515625,-0.413886452,9.853515625,0.339904976
9.86328125,-0.413857841,9.86328125,0.339609146
9.873046875,-0.413783455,9.873046875,0.340259171
9.8828125,-0.413869286,9.8828125,0.342820358
9.892578125,-0.41382637,9.892578125,0.341696548
9.90234375,-0.413783455,9.90234375,0.342319679
9.912109375,-0.413750839,9.912109375,0.342949677
9.921875,-0.413717651,9.921875,0.342966843
9.931640625,-0.413820076,9.931640625,0.345401573
9.94140625,-0.413812065,9.94140625,0.345619011
9.951171875,-0.413634682,9.951171875,0.346396637
9.9609375,-0.41382637,9.9609375,0.347163391
9.970703125,-0.413649559,9.970703125,0.346312523
9.98046875,-0.41387558,9.98046875,0.346642113
9.990234375,-0.4137537,9.990234375,0.347452354
10,-0.413794327,10,0.347053528
10.00976563,-0.413811493,10.00976563,0.346636963
10.01953125,-0.413702774,10.01953125,0.347190857
10.02929688,-0.414074135,10.02929688,0.346414375
10.0390625,-0.413701057,10.0390625,0.346388054
10.04882813,-0.413923645,10.04882813,0.346432114
10.05859375,-0.413785744,10.05859375,0.34537468
10.06835938,-0.413840675,10.06835938,0.34485569
10.078125,-0.41386013,10.078125,0.345759201
10.08789063,-0.413814926,10.08789063,0.344721794
10.09765625,-0.413856697,10.09765625,0.343936157
10.10742188,-0.41378231,10.10742188,0.342704773
10.1171875,-0.41368103,10.1171875,0.341932297
10.12695313,-0.413711929,10.12695313,0.340334702
10.13671875,-0.413822365,10.13671875,0.340215111
10.14648438,-0.413903618,10.14648438,0.339125061
10.15625,-0.414062691,10.15625,0.338849831
10.16601563,-0.413820076,10.16601563,0.339086723
10.17578125,-0.413750267,10.17578125,0.337122917
10.18554688,-0.41386528,10.18554688,0.335301018
10.1953125,-0.41397171,10.1953125,0.3349823
10.20507813,-0.413694191,10.20507813,0.332726097
10.21484375,-0.413961983,10.21484375,0.332292366
10.22460938,-0.414050102,10.22460938,0.332534981
10.234375,-0.413837814,10.234375,0.332113266
10.24414063,-0.413902473,10.24414063,0.329851341
10.25390625,-0.414039803,10.25390625,0.328023148
10.26367188,-0.413813782,10.26367188,0.32672596
10.2734375,-0.413947105,10.2734375,0.325560379
10.28320313,-0.414023781,10.28320313,0.324434853
10.29296875,-0.414118195,10.29296875,0.322471046
10.30273438,-0.413828087,10.30273438,0.321265411
10.3125,-0.414032364,10.3125,0.319272995
10.32226563,-0.414156532,10.32226563,0.318289375
10.33203125,-0.414086151,10.33203125,0.317226219
10.34179688,-0.41404438,10.34179688,0.314832687
10.3515625,-0.414014053,10.3515625,0.312577057
10.36132813,-0.414152527,10.36132813,0.311559105
10.37109375,-0.41407814,10.37109375,0.311595154
10.38085938,-0.414299011,10.38085938,0.308320999
10.390625,-0.414003181,10.390625,0.306937981
10.40039063,-0.414076996,10.40039063,0.304491234
10.41015625,-0.414174843,10.41015625,0.301954079
10.41992188,-0.414109039,10.41992188,0.30105629
10.4296875,-0.414040375,10.4296875,0.298744583
10.43945313,-0.414254379,10.43945313,0.295576859
10.44921875,-0.414163971,10.44921875,0.294109726
10.45898438,-0.414291573,10.45898438,0.291515923
10.46875,-0.414327049,10.46875,0.290054512
10.47851563,-0.414453506,10.47851563,0.287644386
10.48828125,-0.414231491,10.48828125,0.2875597
10.49804688,-0.414255524,10.49804688,0.28348732
10.5078125,-0.414712143,10.5078125,0.2799757
10.51757813,-0.414564514,10.51757813,0.27879982
10.52734375,-0.414459801,10.52734375,0.275993729
10.53710938,-0.414574242,10.53710938,0.273540115
10.546875,-0.414511299,10.546875,0.272134209
10.55664063,-0.414674377,10.55664063,0.271097946
10.56640625,-0.414452362,10.56640625,0.269954109
10.57617188,-0.414599419,10.57617188,0.268412018
10.5859375,-0.414570808,10.5859375,0.267955399
10.59570313,-0.414523315,10.59570313,0.269578743
10.60546875,-0.414537048,10.60546875,0.269377327
10.61523438,-0.414466667,10.61523438,0.270637321
10.625,-0.414421463,10.625,0.270955467
10.63476563,-0.41435051,10.63476563,0.27218399
10.64453125,-0.414375114,10.64453125,0.274674225
10.65429688,-0.414469528,10.65429688,0.275172043
10.6640625,-0.414401436,10.6640625,0.277482033
10.67382813,-0.414496994,10.67382813,0.278929138
10.68359375,-0.41436367,10.68359375,0.282067108
10.69335938,-0.414488411,10.69335938,0.285219383
10.703125,-0.414283562,10.703125,0.286764336
10.71289063,-0.414427185,10.71289063,0.290524292
10.72265625,-0.414418602,10.72265625,0.293639374
10.73242188,-0.414162254,10.73242188,0.296245193
10.7421875,-0.414154243,10.7421875,0.298134041
10.75195313,-0.414204025,10.75195313,0.301812744
10.76171875,-0.414271545,10.76171875,0.306352043
10.77148438,-0.414052391,10.77148438,0.309401321
10.78125,-0.414152527,10.78125,0.31077919
10.79101563,-0.414026642,10.79101563,0.313364983
10.80078125,-0.414058685,10.80078125,0.315594292
10.81054688,-0.414062691,10.81054688,0.318431854
10.8203125,-0.414021492,10.8203125,0.318921089
10.83007813,-0.414134216,10.83007813,0.321100044
10.83984375,-0.4141222,10.83984375,0.32136898
10.84960938,-0.413861847,10.84960938,0.321347809
10.859375,-0.413998604,10.859375,0.320326996
10.86914063,-0.413788033,10.86914063,0.32042942
10.87890625,-0.414085579,10.87890625,0.318377495
10.88867188,-0.414071274,10.88867188,0.318350029
10.8984375,-0.414104462,10.8984375,0.31877346
10.90820313,-0.414282417,10.90820313,0.318904495
10.91796875,-0.414082146,10.91796875,0.317917442
10.92773438,-0.414110756,10.92773438,0.317146683
10.9375,-0.414051247,10.9375,0.317998695
10.94726563,-0.414273262,10.94726563,0.31518116
10.95703125,-0.414060974,10.95703125,0.315531921
10.96679688,-0.413897896,10.96679688,0.314051056
10.9765625,-0.414056396,10.9765625,0.3133461
10.98632813,-0.414221764,10.98632813,0.311151123
10.99609375,-0.414097023,10.99609375,0.310455322
11.00585938,-0.414154816,11.00585938,0.30926342
11.015625,-0.414220047,11.015625,0.307204056
11.02539063,-0.414168549,11.02539063,0.306273651
11.03515625,-0.414052963,11.03515625,0.305409622
11.04492188,-0.414269257,11.04492188,0.304397392
11.0546875,-0.414201164,11.0546875,0.304559898
11.06445313,-0.414229202,11.06445313,0.305075455
11.07421875,-0.414114761,11.07421875,0.303699303
11.08398438,-0.414158821,11.08398438,0.302112007
11.09375,-0.414159966,11.09375,0.301847649
11.10351563,-0.414073563,11.10351563,0.302451897
11.11328125,-0.414419746,11.11328125,0.300995064
11.12304688,-0.414289856,11.12304688,0.301796722
11.1328125,-0.414410591,11.1328125,0.300012589
11.14257813,-0.414261818,11.14257813,0.298828697
11.15234375,-0.414398575,11.15234375,0.297335243
11.16210938,-0.414205742,11.16210938,0.297762108
11.171875,-0.414252663,11.171875,0.296665192
11.18164063,-0.414158821,11.18164063,0.296255493
11.19140625,-0.414303017,11.19140625,0.293952942
11.20117188,-0.414499283,11.20117188,0.2933424
11.2109375,-0.41433506,11.2109375,0.290999222
11.22070313,-0.414327049,11.22070313,0.291284752
11.23046875,-0.414393997,11.23046875,0.289632225
11.24023438,-0.414365387,11.24023438,0.286474228
11.25,-0.414313316,11.25,0.285429382
11.25976563,-0.414280128,11.25976563,0.28331852
11.26953125,-0.414466667,11.26953125,0.282614708
11.27929688,-0.414509583,11.27929688,0.280558205
11.2890625,-0.414446068,11.2890625,0.278232765
11.29882813,-0.414230347,11.29882813,0.27558403
11.30859375,-0.414510727,11.30859375,0.274663925
11.31835938,-0.414555359,11.31835938,0.271895027
11.328125,-0.414571381,11.328125,0.269776726
11.33789063,-0.414697838,11.33789063,0.269072914
11.34765625,-0.414437485,11.34765625,0.266984367
11.35742188,-0.414610863,11.35742188,0.263614655
11.3671875,-0.414728737,11.3671875,0.261579895
11.37695313,-0.414719582,11.37695313,0.25879612
11.38671875,-0.414565659,11.38671875,0.256570816
11.39648438,-0.414717865,11.39648438,0.254577827
11.40625,-0.414856339,11.40625,0.251810074
11.41601563,-0.414553642,11.41601563,0.249007988
11.42578125,-0.414882088,11.42578125,0.246870804
11.43554688,-0.414875793,11.43554688,0.245705223
11.4453125,-0.414839745,11.4453125,0.242610168
11.45507813,-0.414844894,11.45507813,0.241028595
11.46484375,-0.414729309,11.46484375,0.23884964
11.47460938,-0.414856911,11.47460938,0.237393379
11.484375,-0.414724159,11.484375,0.235511398
11.49414063,-0.414781952,11.49414063,0.233437157
11.50390625,-0.415110397,11.50390625,0.23233223
11.51367188,-0.414918709,11.51367188,0.228941917
11.5234375,-0.41508522,11.5234375,0.227601242
11.53320313,-0.414775085,11.53320313,0.224290466
11.54296875,-0.414979935,11.54296875,0.223601532
11.55273438,-0.414813423,11.55273438,0.220630646
11.5625,-0.414896965,11.5625,0.219787216
11.57226563,-0.414886093,11.57226563,0.216854095
11.58203125,-0.415213966,11.58203125,0.213607407
11.59179688,-0.415077209,11.59179688,0.212132835
11.6015625,-0.4150177,11.6015625,0.211358643
11.61132813,-0.414787674,11.61132813,0.207695389
11.62109375,-0.415153313,11.62109375,0.208638954
11.63085938,-0.415089798,11.63085938,0.206674576
11.640625,-0.415084648,11.640625,0.207468796
11.65039063,-0.415068054,11.65039063,0.206659126
11.66015625,-0.415199089,11.66015625,0.206799316
11.66992188,-0.415102959,11.66992188,0.208822632
11.6796875,-0.414945602,11.6796875,0.20958252
11.68945313,-0.414908409,11.68945313,0.211994934
11.69921875,-0.414978218,11.69921875,0.213900375
11.70898438,-0.414945602,11.70898438,0.215487671
11.71875,-0.414959335,11.71875,0.218554115
11.72851563,-0.414990234,11.72851563,0.220918465
11.73828125,-0.414949036,11.73828125,0.224271584
11.74804688,-0.414796257,11.74804688,0.228753662
11.7578125,-0.415003967,11.7578125,0.230337524
11.76757813,-0.414793968,11.76757813,0.233106995
11.77734375,-0.414839745,11.77734375,0.236566544
11.78710938,-0.414795685,11.78710938,0.240004921
11.796875,-0.4148386,11.796875,0.243343163
11.80664063,-0.414892387,11.80664063,0.247598648
11.81640625,-0.414599991,11.81640625,0.251030159
11.82617188,-0.41478653,11.82617188,0.254690552
11.8359375,-0.414739609,11.8359375,0.258846474
11.84570313,-0.414487267,11.84570313,0.264224625
11.85546875,-0.414466095,11.85546875,0.267247009
11.86523438,-0.414403152,11.86523438,0.270466232
11.875,-0.414339066,11.875,0.274136925
11.88476563,-0.414384842,11.88476563,0.278426743
11.89453125,-0.414428902,11.89453125,0.282921982
11.90429688,-0.414206314,11.90429688,0.284555626
11.9140625,-0.414499283,11.9140625,0.288281822
11.92382813,-0.414338493,11.92382813,0.291677284
11.93359375,-0.414175987,11.93359375,0.293441391
11.94335938,-0.414410019,11.94335938,0.297158432
11.953125,-0.414140511,11.953125,0.30050869
11.96289063,-0.414066124,11.96289063,0.30148716
11.97265625,-0.414122772,11.97265625,0.305606461
11.98242188,-0.413908195,11.98242188,0.307851791
11.9921875,-0.414011765,11.9921875,0.309898567
12.00195313,-0.414097595,12.00195313,0.312419701
12.01171875,-0.414174271,12.01171875,0.31608181
12.02148438,-0.414089012,12.02148438,0.318735695
12.03125,-0.413897324,12.03125,0.321552086
12.04101563,-0.41407814,12.04101563,0.323981094
12.05078125,-0.414090729,12.05078125,0.327074432
12.06054688,-0.413995743,12.06054688,0.329483986
12.0703125,-0.413762856,12.0703125,0.330571175
12.08007813,-0.41408329,12.08007813,0.332451439
12.08984375,-0.413858986,12.08984375,0.333914566
12.09960938,-0.414097595,12.09960938,0.335386276
12.109375,-0.413818932,12.109375,0.336258888
12.11914063,-0.414020348,12.11914063,0.338371468
12.12890625,-0.413854408,12.12890625,0.339483261
12.13867188,-0.413738251,12.13867188,0.340435982
12.1484375,-0.413677597,12.1484375,0.343470955
12.15820313,-0.413988304,12.15820313,0.343247795
12.16796875,-0.413536835,12.16796875,0.345018196
12.17773438,-0.413894463,12.17773438,0.346053314
12.1875,-0.413962555,12.1875,0.346562576
12.19726563,-0.413750267,12.19726563,0.346600914
12.20703125,-0.413770866,12.20703125,0.347951889
12.21679688,-0.413731956,12.21679688,0.349233627
12.2265625,-0.41365242,12.2265625,0.351294708
12.23632813,-0.413735962,12.23632813,0.351771355
12.24609375,-0.413719368,12.24609375,0.353718567
12.25585938,-0.41348877,12.25585938,0.353771782
12.265625,-0.41380806,12.265625,0.354465866
12.27539063,-0.413503075,12.27539063,0.355076408
12.28515625,-0.41365757,12.28515625,0.356166458
12.29492188,-0.413640976,12.29492188,0.356210518
12.3046875,-0.413852692,12.3046875,0.356885147
12.31445313,-0.413685036,12.31445313,0.356988144
12.32421875,-0.41366272,12.32421875,0.35758667
12.33398438,-0.413751984,12.33398438,0.357394409
12.34375,-0.413666153,12.34375,0.358144569
12.35351563,-0.41367588,12.35351563,0.358260155
12.36328125,-0.413732529,12.36328125,0.356809044
12.37304688,-0.41356144,12.37304688,0.357762909
12.3828125,-0.413700485,12.3828125,0.358497047
12.39257813,-0.413774872,12.39257813,0.359234047
12.40234375,-0.41361351,12.40234375,0.359026909
12.41210938,-0.413429832,12.41210938,0.358982849
12.421875,-0.413693047,12.421875,0.358816338
12.43164063,-0.413586617,12.43164063,0.358295631
12.44140625,-0.413741112,12.44140625,0.356916618
12.45117188,-0.413565445,12.45117188,0.35609951
12.4609375,-0.413795471,12.4609375,0.356470871
12.47070313,-0.413693047,12.47070313,0.356536674
12.48046875,-0.413954544,12.48046875,0.356121254
12.49023438,-0.413750267,12.49023438,0.356310654
12.5,-0.413650131,12.5,0.356373024
12.50976563,-0.413482475,12.50976563,0.354823494
12.51953125,-0.413695335,12.51953125,0.353925705
12.52929688,-0.413590622,12.52929688,0.353453064
12.5390625,-0.413659286,12.5390625,0.35187149
12.54882813,-0.41371994,12.54882813,0.350959396
12.55859375,-0.413566017,12.55859375,0.351077843
12.56835938,-0.413781738,12.56835938,0.34876442
12.578125,-0.413860703,12.578125,0.347811127
12.58789063,-0.413669586,12.58789063,0.348565292
12.59765625,-0.413735962,12.59765625,0.346799469
12.60742188,-0.413789749,12.60742188,0.34774189
12.6171875,-0.413473892,12.6171875,0.345138359
12.62695313,-0.413908195,12.62695313,0.344229698
12.63671875,-0.414097023,12.63671875,0.342603493
12.64648438,-0.413845825,12.64648438,0.34211998
12.65625,-0.413895607,12.65625,0.340896606
12.66601563,-0.41380806,12.66601563,0.339660645
12.67578125,-0.413951111,12.67578125,0.33763504
12.68554688,-0.414024353,12.68554688,0.336673737
12.6953125,-0.413821793,12.6953125,0.337192154
12.70507813,-0.41384697,12.70507813,0.33392086
12.71484375,-0.413898468,12.71484375,0.333096313
12.72460938,-0.413925934,12.72460938,0.33337326
12.734375,-0.413944817,12.734375,0.33344593
12.74414063,-0.413944817,12.74414063,0.332862854
12.75390625,-0.413849831,12.75390625,0.333242226
12.76367188,-0.41402092,12.76367188,0.333244514
12.7734375,-0.413790321,12.7734375,0.335559082
12.78320313,-0.413603783,12.78320313,0.337995529
12.79296875,-0.413832092,12.79296875,0.338744545
12.80273438,-0.413920784,12.80273438,0.339864922
12.8125,-0.413695335,12.8125,0.341823578
12.82226563,-0.41381321,12.82226563,0.344089508
12.83203125,-0.41387558,12.83203125,0.344799042
12.84179688,-0.413592339,12.84179688,0.345924568
12.8515625,-0.413848686,12.8515625,0.348947525
12.86132813,-0.413733673,12.86132813,0.348378181
12.87109375,-0.413676453,12.87109375,0.350383186
12.88085938,-0.413448715,12.88085938,0.351711273
12.890625,-0.413837814,12.890625,0.351002884
12.90039063,-0.413728523,12.90039063,0.353696823
12.91015625,-0.413578606,12.91015625,0.355690384
12.91992188,-0.413567162,12.91992188,0.35739727
12.9296875,-0.413998032,12.9296875,0.356276321
12.93945313,-0.413591194,12.93945313,0.35890274
12.94921875,-0.413636398,12.94921875,0.358584595
12.95898438,-0.413707924,12.95898438,0.360626221
12.96875,-0.413194656,12.96875,0.359878922
12.97851563,-0.413747978,12.97851563,0.358812904
12.98828125,-0.413503647,12.98828125,0.357297707
12.99804688,-0.413930511,12.99804688,0.355282402
13.0078125,-0.413842964,13.0078125,0.35287056
13.01757813,-0.41371994,13.01757813,0.352122688
13.02734375,-0.413698196,13.02734375,0.350088501
13.03710938,-0.413741112,13.03710938,0.346720505
13.046875,-0.41371994,13.046875,0.347438049
13.05664063,-0.413730812,13.05664063,0.346306229
13.06640625,-0.413758278,13.06640625,0.344165039
13.07617188,-0.413863564,13.07617188,0.343961906
13.0859375,-0.413665581,13.0859375,0.343097305
13.09570313,-0.41374054,13.09570313,0.341762352
13.10546875,-0.413777733,13.10546875,0.340752411
13.11523438,-0.4137537,13.11523438,0.340101814
13.125,-0.413887024,13.125,0.338397217
13.13476563,-0.414116478,13.13476563,0.337611008
13.14453125,-0.413908768,13.14453125,0.335199738
13.15429688,-0.413850403,13.15429688,0.335087013
13.1640625,-0.413881302,13.1640625,0.334800339
13.17382813,-0.413894463,13.17382813,0.334376335
13.18359375,-0.413897896,13.18359375,0.332908058
13.19335938,-0.413935661,13.19335938,0.332604218
13.203125,-0.413842392,13.203125,0.33021183
13.21289063,-0.414068413,13.21289063,0.327371407
13.22265625,-0.413962555,13.22265625,0.325060844
13.23242188,-0.414034081,13.23242188,0.324222565
13.2421875,-0.414107323,13.2421875,0.322429276
13.25195313,-0.414216614,13.25195313,0.32059536
13.26171875,-0.413985443,13.26171875,0.317975235
13.27148438,-0.41398201,13.27148438,0.316716957
13.28125,-0.413967705,13.28125,0.315360832
13.29101563,-0.414090729,13.29101563,0.313463402
13.30078125,-0.413993454,13.30078125,0.312843132
13.31054688,-0.414113617,13.31054688,0.30949688
13.3203125,-0.414227486,13.3203125,0.308854866
13.33007813,-0.414284134,13.33007813,0.307115364
13.33984375,-0.414221191,13.33984375,0.303457832
13.34960938,-0.414114189,13.34960938,0.302391243
13.359375,-0.414254379,13.359375,0.30106945
13.36914063,-0.414219475,13.36914063,0.298449898
13.37890625,-0.414414597,13.37890625,0.296376801
13.38867188,-0.414319611,13.38867188,0.295540237
13.3984375,-0.41412735,13.3984375,0.292287827
13.40820313,-0.414434624,13.40820313,0.291051865
13.41796875,-0.414080429,13.41796875,0.28727932
13.42773438,-0.414280701,13.42773438,0.286738014
13.4375,-0.414372253,13.4375,0.283026695
13.44726563,-0.414324188,13.44726563,0.281209373
13.45703125,-0.41427269,13.45703125,0.278800964
13.46679688,-0.414614868,13.46679688,0.276827431
13.4765625,-0.41434021,13.4765625,0.274580956
13.48632813,-0.414373398,13.48632813,0.272333336
13.49609375,-0.414584541,13.49609375,0.271285057
13.50585938,-0.414601135,13.50585938,0.268903542
13.515625,-0.414517021,13.515625,0.267110252
13.52539063,-0.414494133,13.52539063,0.265270042
13.53515625,-0.414620018,13.53515625,0.266189003
13.54492188,-0.414527321,13.54492188,0.262930298
13.5546875,-0.414578247,13.5546875,0.262267113
13.56445313,-0.414657211,13.56445313,0.261233711
13.57421875,-0.414325333,13.57421875,0.260461235
13.58398438,-0.414527321,13.58398438,0.260165977
13.59375,-0.414522171,13.59375,0.258946609
13.60351563,-0.41460743,13.60351563,0.254756927
13.61328125,-0.414632607,13.61328125,0.253451157
13.62304688,-0.414536476,13.62304688,0.252099609
13.6328125,-0.414665222,13.6328125,0.249952126
13.64257813,-0.414884949,13.64257813,0.247416115
13.65234375,-0.414773941,13.65234375,0.244563103
13.66210938,-0.414849472,13.66210938,0.243420982
13.671875,-0.4146698,13.671875,0.243213844
13.68164063,-0.414759064,13.68164063,0.243701935
13.69140625,-0.414787102,13.69140625,0.243081093
13.70117188,-0.414922142,13.70117188,0.242656517
13.7109375,-0.414704132,13.7109375,0.24424324
13.72070313,-0.415025711,13.72070313,0.244283295
13.73046875,-0.414692688,13.73046875,0.246113205
13.74023438,-0.414857483,13.74023438,0.248303604
13.75,-0.414734459,13.75,0.249477196
13.75976563,-0.414559364,13.75976563,0.250964355
13.76953125,-0.414737892,13.76953125,0.252246094
13.77929688,-0.414534187,13.77929688,0.254590416
13.7890625,-0.414692688,13.7890625,0.256695557
13.79882813,-0.414680672,13.79882813,0.259141731
13.80859375,-0.414452362,13.80859375,0.261024857
13.81835938,-0.414373398,13.81835938,0.263190651
13.828125,-0.414562798,13.828125,0.264973068
13.83789063,-0.414564514,13.83789063,0.267170334
13.84765625,-0.414493561,13.84765625,0.270801544
13.85742188,-0.414516449,13.85742188,0.270962334
13.8671875,-0.414442062,13.8671875,0.274094009
13.87695313,-0.414696693,13.87695313,0.276202011
13.88671875,-0.414609718,13.88671875,0.276247787
13.89648438,-0.414520454,13.89648438,0.276570511
13.90625,-0.414357948,13.90625,0.278061104
13.91601563,-0.414303017,13.91601563,0.278153801
13.92578125,-0.414265251,13.92578125,0.278738022
13.93554688,-0.414438629,13.93554688,0.280401993
13.9453125,-0.414169121,13.9453125,0.281278038
13.95507813,-0.414245796,13.95507813,0.28219471
13.96484375,-0.414423752,13.96484375,0.282556343
13.97460938,-0.414348221,13.97460938,0.283708191
13.984375,-0.4143116,13.984375,0.284413719
13.99414063,-0.414437485,13.99414063,0.285720634
14.00390625,-0.414312744,14.00390625,0.287076759
14.01367188,-0.414315033,14.01367188,0.28716259
14.0234375,-0.414047813,14.0234375,0.288892365
14.03320313,-0.414339638,14.03320313,0.28749218
14.04296875,-0.414230919,14.04296875,0.287549973
14.05273438,-0.414336205,14.05273438,0.289169884
14.0625,-0.414347076,14.0625,0.287660408
14.07226563,-0.414278984,14.07226563,0.28862114
14.08203125,-0.414341927,14.08203125,0.287753677
14.09179688,-0.414346504,14.09179688,0.287785721
14.1015625,-0.414398003,14.1015625,0.288954163
14.11132813,-0.414408302,14.11132813,0.286783218
14.12109375,-0.414336205,14.12109375,0.288398552
14.13085938,-0.414295006,14.13085938,0.287681007
14.140625,-0.414057541,14.140625,0.286826134
14.15039063,-0.414272118,14.15039063,0.285300064
14.16015625,-0.414257813,14.16015625,0.286159515
14.16992188,-0.414467812,14.16992188,0.284702682
14.1796875,-0.414082718,14.1796875,0.284104156
14.18945313,-0.414364243,14.18945313,0.283610916
14.19921875,-0.41452446,14.19921875,0.283516502
14.20898438,-0.414483261,14.20898438,0.282136345
14.21875,-0.414269829,14.21875,0.280483818
14.22851563,-0.414287567,14.22851563,0.279737663
14.23828125,-0.414462662,14.23828125,0.278509712
14.24804688,-0.414532471,14.24804688,0.277272606
14.2578125,-0.414419746,14.2578125,0.275700188
14.26757813,-0.4144907,14.26757813,0.275208664
14.27734375,-0.41444149,14.27734375,0.274155235
14.28710938,-0.414472961,14.28710938,0.27317276
14.296875,-0.414475822,14.296875,0.271878433
14.30664063,-0.414406586,14.30664063,0.271313095
14.31640625,-0.414411736,14.31640625,0.267695045
14.32617188,-0.414583397,14.32617188,0.266400719
14.3359375,-0.414494705,14.3359375,0.267259026
14.34570313,-0.414236069,14.34570313,0.264227486
14.35546875,-0.414515305,14.35546875,0.263403511
14.36523438,-0.414622879,14.36523438,0.259919357
14.375,-0.414700699,14.375,0.258575249
14.38476563,-0.414777374,14.38476563,0.258184433
14.39453125,-0.414749908,14.39453125,0.256235504
14.40429688,-0.414642906,14.40429688,0.2543787
14.4140625,-0.41459198,14.4140625,0.251941109
14.42382813,-0.414804268,14.42382813,0.248909569
14.43359375,-0.414696693,14.43359375,0.248547363
14.44335938,-0.414475822,14.44335938,0.247005844
14.453125,-0.414841461,14.453125,0.244750214
14.46289063,-0.414658356,14.46289063,0.241344452
14.47265625,-0.414824867,14.47265625,0.240029526
14.48242188,-0.414946175,14.48242188,0.237462616
14.4921875,-0.414558792,14.4921875,0.236310768
14.50195313,-0.414904976,14.50195313,0.234967804
14.51171875,-0.415004539,14.51171875,0.23316021
14.52148438,-0.414834595,14.52148438,0.230548096
14.53125,-0.414959908,14.53125,0.227606392
14.54101563,-0.414895248,14.54101563,0.22616787
14.55078125,-0.415167046,14.55078125,0.223418427
14.56054688,-0.415035439,14.56054688,0.220914459
14.5703125,-0.415055466,14.5703125,0.2190382
14.58007813,-0.415105247,14.58007813,0.216724777
14.58984375,-0.414961052,14.58984375,0.2145504
14.59960938,-0.41515274,14.59960938,0.212259865
14.609375,-0.414967918,14.609375,0.211301422
14.61914063,-0.415147591,14.61914063,0.209179688
14.62890625,-0.415197945,14.62890625,0.209659767
14.63867188,-0.41499424,14.63867188,0.211555481
14.6484375,-0.415000534,14.6484375,0.211086845
14.65820313,-0.415175056,14.65820313,0.212563133
14.66796875,-0.414982224,14.66796875,0.213521004
14.67773438,-0.415113831,14.67773438,0.214681435
14.6875,-0.414927864,14.6875,0.217238617
14.69726563,-0.414979362,14.69726563,0.220451546
14.70703125,-0.41505661,14.70703125,0.222294617
14.71679688,-0.41497879,14.71679688,0.224876976
14.7265625,-0.414910698,14.7265625,0.227332306
14.73632813,-0.414853477,14.73632813,0.22962513
14.74609375,-0.414800262,14.74609375,0.23182354
14.75585938,-0.414814568,14.75585938,0.234737206
14.765625,-0.414954185,14.765625,0.235976028
14.77539063,-0.414748764,14.77539063,0.239255905
14.78515625,-0.414686394,14.78515625,0.241213989
14.79492188,-0.414774513,14.79492188,0.244047546
14.8046875,-0.414702415,14.8046875,0.248261261
14.81445313,-0.414730453,14.81445313,0.24981308
14.82421875,-0.414674377,14.82421875,0.25294075
14.83398438,-0.414705849,14.83398438,0.255649567
14.84375,-0.414548492,14.84375,0.257999039
14.85351563,-0.41478653,14.85351563,0.25946846
14.86328125,-0.414655495,14.86328125,0.260352516
14.87304688,-0.414642906,14.87304688,0.26245079
14.8828125,-0.414522743,14.8828125,0.263627815
14.89257813,-0.414584541,14.89257813,0.266485977
14.90234375,-0.414549065,14.90234375,0.267295074
14.91210938,-0.414474678,14.91210938,0.268012619
14.921875,-0.41458168,14.921875,0.268805122
14.93164063,-0.414878082,14.93164063,0.271892738
14.94140625,-0.414234924,14.94140625,0.273053169
14.95117188,-0.414464951,14.95117188,0.274750328
14.9609375,-0.414864922,14.9609375,0.277185631
14.97070313,-0.414356804,14.97070313,0.277428246
14.98046875,-0.414371681,14.98046875,0.278690529
14.99023438,-0.414438057,14.99023438,0.280169106
15,-0.414286995,15,0.281209373
15.00976563,-0.414235497,15.00976563,0.282409859
15.01953125,-0.414195442,15.01953125,0.282810402
15.02929688,-0.414211464,15.02929688,0.2845047
15.0390625,-0.414404297,15.0390625,0.284399414
15.04882813,-0.414299583,15.04882813,0.284915543
15.05859375,-0.414288139,15.05859375,0.284940147
15.06835938,-0.414120483,15.06835938,0.285036278
15.078125,-0.414406013,15.078125,0.286732864
15.08789063,-0.41430645,15.08789063,0.287131119
15.09765625,-0.414237213,15.09765625,0.285923195
15.10742188,-0.41429615,15.10742188,0.286881065
15.1171875,-0.414338493,15.1171875,0.285865974
15.12695313,-0.414404869,15.12695313,0.286363792
15.13671875,-0.414415169,15.13671875,0.286014748
15.14648438,-0.414102745,15.14648438,0.285809898
15.15625,-0.414237785,15.15625,0.28662014
15.16601563,-0.414357948,15.16601563,0.284746742
15.17578125,-0.414472389,15.17578125,0.284802818
15.18554688,-0.414329338,15.18554688,0.284484673
15.1953125,-0.41444664,15.1953125,0.283893585
15.20507813,-0.414097595,15.20507813,0.28384037
15.21484375,-0.414428329,15.21484375,0.282930565
15.22460938,-0.414419174,15.22460938,0.282992935
15.234375,-0.414508438,15.234375,0.281653976
15.24414063,-0.414415169,15.24414063,0.28026638
15.25390625,-0.414186287,15.25390625,0.27990303
15.26367188,-0.414451218,15.26367188,0.27884903
15.2734375,-0.414247513,15.2734375,0.277522659
15.28320313,-0.414712143,15.28320313,0.276766777
15.29296875,-0.414224625,15.29296875,0.277130699
15.30273438,-0.414558792,15.30273438,0.275650406
15.3125,-0.414564514,15.3125,0.275150871
15.32226563,-0.414278412,15.32226563,0.27252388
15.33203125,-0.414518738,15.33203125,0.274608994
15.34179688,-0.414388847,15.34179688,0.273739815
15.3515625,-0.414399147,15.3515625,0.271710777
15.36132813,-0.41440258,15.36132813,0.270243073
15.37109375,-0.41449585,15.37109375,0.269325256
15.38085938,-0.414455795,15.38085938,0.267521095
15.390625,-0.414537048,15.390625,0.266869354
15.40039063,-0.414606285,15.40039063,0.264941025
15.41015625,-0.414652634,15.41015625,0.263370323
15.41992188,-0.414549637,15.41992188,0.262139511
15.4296875,-0.414606285,15.4296875,0.262878799
15.43945313,-0.414603424,15.43945313,0.258932877
15.44921875,-0.414692116,15.44921875,0.256467819
15.45898438,-0.414728165,15.45898438,0.254608727
15.46875,-0.414744759,15.46875,0.253425407
15.47851563,-0.414769363,15.47851563,0.251123428
15.48828125,-0.414593124,15.48828125,0.250274849
15.49804688,-0.4146595,15.49804688,0.248605728
15.5078125,-0.4148386,15.5078125,0.24565773
15.51757813,-0.414630318,15.51757813,0.24403553
15.52734375,-0.414797401,15.52734375,0.243330002
15.53710938,-0.414698982,15.53710938,0.243047333
15.546875,-0.414824867,15.546875,0.240357971
15.55664063,-0.414927292,15.55664063,0.236927605
15.56640625,-0.41495018,15.56640625,0.233946991
15.57617188,-0.414938736,15.57617188,0.232177734
15.5859375,-0.414997101,15.5859375,0.229585648
15.59570313,-0.414866638,15.59570313,0.228635216
15.60546875,-0.414942741,15.60546875,0.228153419
15.61523438,-0.414874649,15.61523438,0.225627708
15.625,-0.414947319,15.625,0.227829552
15.63476563,-0.415053177,15.63476563,0.226736641
15.64453125,-0.414855194,15.64453125,0.228944206
15.65429688,-0.415107536,15.65429688,0.229393387
15.6640625,-0.414890671,15.6640625,0.23015213
15.67382813,-0.41492672,15.67382813,0.231404114
15.68359375,-0.414809418,15.68359375,0.234095764
15.69335938,-0.414709282,15.69335938,0.235089111
15.703125,-0.414816284,15.703125,0.238619041
15.71289063,-0.414767075,15.71289063,0.238756371
15.72265625,-0.414784241,15.72265625,0.241791916
15.73242188,-0.414765358,15.73242188,0.243959999
15.7421875,-0.414773941,15.7421875,0.246848488
15.75195313,-0.414799118,15.75195313,0.248291588
15.76171875,-0.414780807,15.76171875,0.249498367
15.77148438,-0.414772224,15.77148438,0.254057121
15.78125,-0.414792824,15.78125,0.255567741
15.79101563,-0.414546204,15.79101563,0.258459663
15.80078125,-0.414578247,15.80078125,0.261896896
15.81054688,-0.414664078,15.81054688,0.264826012
15.8203125,-0.414784813,15.8203125,0.26661129
15.83007813,-0.414522743,15.83007813,0.268780518
15.83984375,-0.414527321,15.83984375,0.270911407
15.84960938,-0.414476967,15.84960938,0.272296715
15.859375,-0.414510155,15.859375,0.274967766
15.86914063,-0.414497566,15.86914063,0.276086426
15.87890625,-0.414384842,15.87890625,0.277130699
15.88867188,-0.414580536,15.88867188,0.278775787
15.8984375,-0.414527893,15.8984375,0.279620361
15.90820313,-0.414425468,15.90820313,0.28048954
15.91796875,-0.414644051,15.91796875,0.282182693
15.92773438,-0.414142799,15.92773438,0.28347187
15.9375,-0.414190292,15.9375,0.283268738
15.94726563,-0.414297867,15.94726563,0.285353851
15.95703125,-0.414427757,15.95703125,0.286635017
15.96679688,-0.414181137,15.96679688,0.288191414
15.9765625,-0.414084435,15.9765625,0.291311073
15.98632813,-0.414365387,15.98632813,0.291827202
15.99609375,-0.414255524,15.99609375,0.29381218
16.00585938,-0.414100456,16.00585938,0.293531227
16.015625,-0.414312744,16.015625,0.294684792
16.02539063,-0.414240074,16.02539063,0.294178963
16.03515625,-0.414110184,16.03515625,0.296736145
16.04492188,-0.414309883,16.04492188,0.296027756
16.0546875,-0.414254379,16.0546875,0.297069168
16.06445313,-0.414253807,16.06445313,0.296873474
16.07421875,-0.414348793,16.07421875,0.296612549
16.08398438,-0.413926506,16.08398438,0.297431946
16.09375,-0.414133072,16.09375,0.296347618
16.10351563,-0.414361954,16.10351563,0.29902668
16.11328125,-0.41419487,16.11328125,0.299479866
16.12304688,-0.414447212,16.12304688,0.298504829
16.1328125,-0.414105034,16.1328125,0.299791145
16.14257813,-0.414526749,16.14257813,0.299599457
16.15234375,-0.414085007,16.15234375,0.299965096
16.16210938,-0.41417942,16.16210938,0.300479507
16.171875,-0.414415169,16.171875,0.299807167
16.18164063,-0.414284134,16.18164063,0.301532364
16.19140625,-0.414109612,16.19140625,0.300366211
16.20117188,-0.414246368,16.20117188,0.301232529
16.2109375,-0.413702774,16.2109375,0.300387955
16.22070313,-0.41415081,16.22070313,0.301350975
16.23046875,-0.41397171,16.23046875,0.300593948
16.24023438,-0.414359665,16.24023438,0.302192116
16.25,-0.413955688,16.25,0.301042557
16.25976563,-0.414056969,16.25976563,0.300578499
16.26953125,-0.414349937,16.26953125,0.300355339
16.27929688,-0.414339066,16.27929688,0.299890709
16.2890625,-0.414251518,16.2890625,0.298923683
16.29882813,-0.414227486,16.29882813,0.298327446
16.30859375,-0.41423893,16.30859375,0.298852158
16.31835938,-0.414193153,16.31835938,0.297898293
16.328125,-0.414181137,16.328125,0.296947861
16.33789063,-0.414066696,16.33789063,0.296023178
16.34765625,-0.414285278,16.34765625,0.295751381
16.35742188,-0.414186287,16.35742188,0.295299911
16.3671875,-0.414292717,16.3671875,0.295729637
16.37695313,-0.414289284,16.37695313,0.294720268
16.38671875,-0.414199448,16.38671875,0.292992783
16.39648438,-0.41423378,16.39648438,0.292415428
16.40625,-0.414434624,16.40625,0.29156971
16.41601563,-0.414328194,16.41601563,0.29071312
16.42578125,-0.414344788,16.42578125,0.290372086
16.43554688,-0.41455307,16.43554688,0.28985939
16.4453125,-0.414319611,16.4453125,0.288986778
16.45507813,-0.414367104,16.45507813,0.287915611
16.46484375,-0.414509583,16.46484375,0.287313652
16.47460938,-0.414475822,16.47460938,0.286212158
16.484375,-0.414411163,16.484375,0.286221886
16.49414063,-0.414503288,16.49414063,0.284936142
16.50390625,-0.41433506,16.50390625,0.2830616
16.51367188,-0.414474678,16.51367188,0.282076263
16.5234375,-0.414337349,16.5234375,0.281042862
16.53320313,-0.414515305,16.53320313,0.279917336
16.54296875,-0.414428902,16.54296875,0.278946304
16.55273438,-0.414537621,16.55273438,0.278501129
16.5625,-0.414580536,16.5625,0.276449203
16.57226563,-0.414343643,16.57226563,0.275749969
16.58203125,-0.414406013,16.58203125,0.273535538
16.59179688,-0.414218903,16.59179688,0.272849464
16.6015625,-0.414379692,16.6015625,0.269348717
16.61132813,-0.414599991,16.61132813,0.269698334
16.62109375,-0.414459229,16.62109375,0.268078995
16.63085938,-0.414643478,16.63085938,0.269238853
16.640625,-0.414637756,16.640625,0.269047165
16.65039063,-0.414276695,16.65039063,0.26949234
16.66015625,-0.414561081,16.66015625,0.272186852
16.66992188,-0.414274406,16.66992188,0.273174477
16.6796875,-0.414583397,16.6796875,0.27393837
16.68945313,-0.414555931,16.68945313,0.276974487
16.69921875,-0.414508438,16.69921875,0.277409363
16.70898438,-0.414345932,16.70898438,0.281166458
16.71875,-0.414638901,16.71875,0.28312397
16.72851563,-0.414268684,16.72851563,0.284544754
16.73828125,-0.414274406,16.73828125,0.287921333
16.74804688,-0.414315033,16.74804688,0.288836288
16.7578125,-0.414245796,16.7578125,0.291615486
16.76757813,-0.414183998,16.76757813,0.294705963
16.77734375,-0.414134216,16.77734375,0.29492054
16.78710938,-0.414377403,16.78710938,0.298354912
16.796875,-0.414449501,16.796875,0.301016235
16.80664063,-0.414198875,16.80664063,0.30554409
16.81640625,-0.414278412,16.81640625,0.306721687
16.82617188,-0.414270973,16.82617188,0.310337448
16.8359375,-0.414079857,16.8359375,0.311512756
16.84570313,-0.413983727,16.84570313,0.313712883
16.85546875,-0.414009476,16.85546875,0.314206123
16.86523438,-0.413944817,16.86523438,0.317875099
16.875,-0.414077568,16.875,0.319949341
16.88476563,-0.414034081,16.88476563,0.31942749
16.89453125,-0.413951111,16.89453125,0.320578766
16.90429688,-0.413889313,16.90429688,0.322485352
16.9140625,-0.414036942,16.9140625,0.324987602
16.92382813,-0.413998032,16.92382813,0.32509346
16.93359375,-0.413862991,16.93359375,0.327478981
16.94335938,-0.413968277,16.94335938,0.328083229
16.953125,-0.413806915,16.953125,0.329726028
16.96289063,-0.41374855,16.96289063,0.330926514
16.97265625,-0.4139534,16.97265625,0.331726456
16.98242188,-0.413852692,16.98242188,0.332475471
16.9921875,-0.413793182,16.9921875,0.335295296
17.00195313,-0.413821793,17.00195313,0.33456974
17.01171875,-0.41376915,17.01171875,0.335651207
17.02148438,-0.413884735,17.02148438,0.337729454
17.03125,-0.413848686,17.03125,0.338897896
17.04101563,-0.413842964,17.04101563,0.33916626
17.05078125,-0.413895035,17.05078125,0.338666153
17.06054688,-0.413656998,17.06054688,0.34003315
17.0703125,-0.413809776,17.0703125,0.34003315
17.08007813,-0.41371479,17.08007813,0.340740967
17.08984375,-0.413754845,17.08984375,0.341893959
17.09960938,-0.414029503,17.09960938,0.341072845
17.109375,-0.413962555,17.109375,0.341772079
17.11914063,-0.413703346,17.11914063,0.342016411
17.12890625,-0.413816071,17.12890625,0.341722298
17.13867188,-0.413871002,17.13867188,0.342177773
17.1484375,-0.413903618,17.1484375,0.342842674
17.15820313,-0.41374054,17.15820313,0.34230423
17.16796875,-0.41374054,17.16796875,0.341331482
17.17773438,-0.413882446,17.17773438,0.341661072
17.1875,-0.413872147,17.1875,0.341113472
17.19726563,-0.413911057,17.19726563,0.340618515
17.20703125,-0.41387558,17.20703125,0.339162827
17.21679688,-0.413878441,17.21679688,0.337735176
17.2265625,-0.413999748,17.2265625,0.339309311
17.23632813,-0.413848114,17.23632813,0.336827087
17.24609375,-0.413915634,17.24609375,0.336894608
17.25585938,-0.413968277,17.25585938,0.336512375
17.265625,-0.413690758,17.265625,0.336294937
17.27539063,-0.413994598,17.27539063,0.335300446
17.28515625,-0.413967705,17.28515625,0.333922577
17.29492188,-0.414008331,17.29492188,0.332461739
17.3046875,-0.413920784,17.3046875,0.331170845
17.31445313,-0.413925934,17.31445313,0.329811287
17.32421875,-0.413929939,17.32421875,0.329107475
17.33398438,-0.414002037,17.33398438,0.327446365
17.34375,-0.414082718,17.34375,0.326379204
17.35351563,-0.41403923,17.35351563,0.325067139
17.36328125,-0.414056396,17.36328125,0.324089813
17.37304688,-0.41405983,17.37304688,0.323108482
17.3828125,-0.413829231,17.3828125,0.32165966
17.39257813,-0.414019203,17.39257813,0.31981945
17.40234375,-0.414229202,17.40234375,0.31815834
17.41210938,-0.414099312,17.41210938,0.315379143
17.421875,-0.414035225,17.421875,0.312839127
17.43164063,-0.414126205,17.43164063,0.311743927
17.44140625,-0.414135933,17.44140625,0.309856224
17.45117188,-0.414224052,17.45117188,0.30914669
17.4609375,-0.414404297,17.4609375,0.30562191
17.47070313,-0.414349937,17.47070313,0.304730988
17.48046875,-0.414124489,17.48046875,0.302270508
17.49023438,-0.41403923,17.49023438,0.299501038
17.5,-0.414013481,17.5,0.296422005
17.50976563,-0.414284134,17.50976563,0.294986916
17.51953125,-0.414376831,17.51953125,0.293837357
17.52929688,-0.414337921,17.52929688,0.291804314
17.5390625,-0.413957977,17.5390625,0.28854847
17.54882813,-0.414379692,17.54882813,0.285852242
17.55859375,-0.414341927,17.55859375,0.282356644
17.56835938,-0.414548492,17.56835938,0.280234337
17.578125,-0.414439774,17.578125,0.277487755
17.58789063,-0.41438942,17.58789063,0.276117325
17.59765625,-0.414539909,17.59765625,0.274433899
17.60742188,-0.414949036,17.60742188,0.271663284
17.6171875,-0.414557648,17.6171875,0.271065331
17.62695313,-0.414671516,17.62695313,0.271155167
17.63671875,-0.414531898,17.63671875,0.269823647
17.64648438,-0.414609718,17.64648438,0.268608856
17.65625,-0.414590263,17.65625,0.269107246
17.66601563,-0.414733887,17.66601563,0.269753838
17.67578125,-0.414510155,17.67578125,0.268321037
17.68554688,-0.414617157,17.68554688,0.269142723
17.6953125,-0.414416313,17.6953125,0.269880295
17.70507813,-0.414529037,17.70507813,0.270735741
17.71484375,-0.414740181,17.71484375,0.27129879
17.72460938,-0.414652634,17.72460938,0.272939873
17.734375,-0.414672089,17.734375,0.272696114
17.74414063,-0.4144804,17.74414063,0.271530533
17.75390625,-0.414280701,17.75390625,0.27305088
17.76367188,-0.414442635,17.76367188,0.274217606
17.7734375,-0.414403725,17.7734375,0.275318527
17.78320313,-0.414371109,17.78320313,0.27590332
17.79296875,-0.414520454,17.79296875,0.277533531
17.80273438,-0.414486694,17.80273438,0.277574158
17.8125,-0.41451931,17.8125,0.278935432
17.82226563,-0.414331055,17.82226563,0.277578163
17.83203125,-0.414377975,17.83203125,0.278891373
17.84179688,-0.414500999,17.84179688,0.279217529
17.8515625,-0.414510155,17.8515625,0.27938633
17.86132813,-0.414141083,17.86132813,0.278298569
17.87109375,-0.414535904,17.87109375,0.27733326
17.88085938,-0.414447212,17.88085938,0.279297638
17.890625,-0.414418602,17.890625,0.279348564
17.90039063,-0.414492416,17.90039063,0.27923584
17.91015625,-0.414428902,17.91015625,0.279891586
17.91992188,-0.41427784,17.91992188,0.279298782
17.9296875,-0.414506721,17.9296875,0.27876091
17.93945313,-0.414348793,17.93945313,0.278366089
17.94921875,-0.414432335,17.94921875,0.27821846
17.95898438,-0.414359093,17.95898438,0.278732872
17.96875,-0.41434536,17.96875,0.279792023
17.97851563,-0.414290428,17.97851563,0.277983856
17.98828125,-0.414482689,17.98828125,0.278165817
17.99804688,-0.41445694,17.99804688,0.276972198
18.0078125,-0.414487839,18.0078125,0.276400566
18.01757813,-0.41458168,18.01757813,0.277540398
18.02734375,-0.414580536,18.02734375,0.276315308
18.03710938,-0.414338493,18.03710938,0.27501812
18.046875,-0.414514732,18.046875,0.275540543
18.05664063,-0.414493561,18.05664063,0.272894096
18.06640625,-0.414557648,18.06640625,0.271515656
18.07617188,-0.414476967,18.07617188,0.271537971
18.0859375,-0.414510727,18.0859375,0.270556068
18.09570313,-0.414518738,18.09570313,0.268898964
18.10546875,-0.414464378,18.10546875,0.267711067
18.11523438,-0.414669228,18.11523438,0.266827583
18.125,-0.414492416,18.125,0.265193367
18.13476563,-0.414538765,18.13476563,0.262988663
18.14453125,-0.414650917,18.14453125,0.263312531
18.15429688,-0.414590836,18.15429688,0.261651421
18.1640625,-0.414498711,18.1640625,0.260102463
18.17382813,-0.414571381,18.17382813,0.259173203
18.18359375,-0.414632607,18.18359375,0.256185722
18.19335938,-0.414713287,18.19335938,0.254371262
18.203125,-0.414753914,18.203125,0.253181648
18.21289063,-0.414590263,18.21289063,0.252890396
18.22265625,-0.414676094,18.22265625,0.250594139
18.23242188,-0.414779663,18.23242188,0.24877739
18.2421875,-0.414651489,18.2421875,0.246877098
18.25195313,-0.414806557,18.25195313,0.244562531
18.26171875,-0.414870071,18.26171875,0.242797279
18.27148438,-0.414895248,18.27148438,0.24080658
18.28125,-0.414680099,18.28125,0.238971519
18.29101563,-0.41483345,18.29101563,0.237010574
18.30078125,-0.415006256,18.30078125,0.235141182
18.31054688,-0.414937592,18.31054688,0.232153702
18.3203125,-0.414843178,18.3203125,0.230738068
18.33007813,-0.414767075,18.33007813,0.22944088
18.33984375,-0.414893532,18.33984375,0.227584648
18.34960938,-0.414747047,18.34960938,0.224390602
18.359375,-0.414997101,18.359375,0.222942352
18.36914063,-0.414941025,18.36914063,0.220820045
18.37890625,-0.414861488,18.37890625,0.218109512
18.38867188,-0.415038872,18.38867188,0.216444397
18.3984375,-0.415074348,18.3984375,0.214037132
18.40820313,-0.415065765,18.40820313,0.211413002
18.41796875,-0.415060043,18.41796875,0.209596825
18.42773438,-0.41517849,18.42773438,0.206993866
18.4375,-0.415256882,18.4375,0.204221535
18.44726563,-0.415205383,18.44726563,0.201842308
18.45703125,-0.415017128,18.45703125,0.20024929
18.46679688,-0.415028572,18.46679688,0.197522163
18.4765625,-0.41526947,18.4765625,0.194413376
18.48632813,-0.415263176,18.48632813,0.192000389
18.49609375,-0.415258026,18.49609375,0.189909554
18.50585938,-0.415151596,18.50585938,0.186351585
18.515625,-0.415323257,18.515625,0.185422325
18.52539063,-0.415328979,18.52539063,0.183772087
18.53515625,-0.415389633,18.53515625,0.179118919
18.54492188,-0.415287781,18.54492188,0.175756645
18.5546875,-0.415378189,18.5546875,0.172540855
18.56445313,-0.415488052,18.56445313,0.169085884
18.57421875,-0.415476608,18.57421875,0.168228149
18.58398438,-0.415438271,18.58398438,0.166311264
18.59375,-0.415579033,18.59375,0.164189529
18.60351563,-0.415576744,18.60351563,0.162224007
18.61328125,-0.415550995,18.61328125,0.162423134
18.62304688,-0.415494347,18.62304688,0.161091042
18.6328125,-0.415565872,18.6328125,0.161032677
18.64257813,-0.415625381,18.64257813,0.16153965
18.65234375,-0.415513229,18.65234375,0.160803795
18.66210938,-0.415581322,18.66210938,0.163978958
18.671875,-0.415626526,18.671875,0.164225006
18.68164063,-0.415479469,18.68164063,0.164318848
18.69140625,-0.415475464,18.69140625,0.165085602
18.70117188,-0.415589333,18.70117188,0.166126442
18.7109375,-0.415316391,18.7109375,0.166783333
18.72070313,-0.415601921,18.72070313,0.168818092
18.73046875,-0.415398216,18.73046875,0.169683838
18.74023438,-0.41547718,18.74023438,0.171105766
18.75,-0.415633965,18.75,0.172133446
18.75976563,-0.415445137,18.75976563,0.171986389
18.76953125,-0.415397644,18.76953125,0.174846268
18.77929688,-0.415546417,18.77929688,0.177087021
18.7890625,-0.415437698,18.7890625,0.179291725
18.79882813,-0.415525818,18.79882813,0.179273415
18.80859375,-0.415442276,18.80859375,0.180804062
18.81835938,-0.415537834,18.81835938,0.181620026
18.828125,-0.415310097,18.828125,0.18223629
18.83789063,-0.415456009,18.83789063,0.18292408
18.84765625,-0.415327835,18.84765625,0.183320045
18.85742188,-0.415377617,18.85742188,0.184255028
18.8671875,-0.415294647,18.8671875,0.184107971
18.87695313,-0.415492058,18.87695313,0.184509659
18.88671875,-0.415343857,18.88671875,0.185248375
18.89648438,-0.415444565,18.89648438,0.185611153
18.90625,-0.415496063,18.90625,0.18485527
18.91601563,-0.415318108,18.91601563,0.186160469
18.92578125,-0.415236855,18.92578125,0.185951614
18.93554688,-0.415224838,18.93554688,0.186058617
18.9453125,-0.415254593,18.9453125,0.187356377
18.95507813,-0.415359306,18.95507813,0.186206818
18.96484375,-0.415330696,18.96484375,0.187556648
18.97460938,-0.41506176,18.97460938,0.18767395
18.984375,-0.415283775,18.984375,0.186933517
18.99414063,-0.415158463,18.99414063,0.186548424
19.00390625,-0.415345573,19.00390625,0.187397003
19.01367188,-0.415331841,19.01367188,0.186565018
19.0234375,-0.415029144,19.0234375,0.185581398
19.03320313,-0.41529808,19.03320313,0.185485268
19.04296875,-0.41523571,19.04296875,0.184652138
19.05273438,-0.415449142,19.05273438,0.1860569
19.0625,-0.415291214,19.0625,0.183534622
19.07226563,-0.415299225,19.07226563,0.182298088
19.08203125,-0.415327835,19.08203125,0.181737328
19.09179688,-0.415311241,19.09179688,0.180103111
19.1015625,-0.415274048,19.1015625,0.180792046
19.11132813,-0.415505219,19.11132813,0.178725243
19.12109375,-0.415149307,19.12109375,0.177674103
19.13085938,-0.415576172,19.13085938,0.176747131
19.140625,-0.415317535,19.140625,0.17608223
19.15039063,-0.415368462,19.15039063,0.174073792
19.16015625,-0.415463448,19.16015625,0.174132729
19.16992188,-0.415267181,19.16992188,0.173015785
19.1796875,-0.415437698,19.1796875,0.171532631
19.18945313,-0.415466881,19.18945313,0.169879532
19.19921875,-0.415427971,19.19921875,0.169045258
19.20898438,-0.415524673,19.20898438,0.167758369
19.21875,-0.415597916,19.21875,0.167341232
19.22851563,-0.415331841,19.22851563,0.16600399
19.23828125,-0.415652847,19.23828125,0.163228798
19.24804688,-0.415299225,19.24804688,0.161200333
19.2578125,-0.415610504,19.2578125,0.161567688
19.26757813,-0.415827942,19.26757813,0.159095764
19.27734375,-0.415709496,19.27734375,0.158849716
19.28710938,-0.415571022,19.28710938,0.15730648
19.296875,-0.415548706,19.296875,0.155277443
19.30664063,-0.415634537,19.30664063,0.154995918
19.31640625,-0.41585598,19.31640625,0.153439522
19.32617188,-0.415755272,19.32617188,0.151659966
19.3359375,-0.415596199,19.3359375,0.149571991
19.34570313,-0.415824509,19.34570313,0.148542595
19.35546875,-0.415572739,19.35546875,0.146453476
19.36523438,-0.415772438,19.36523438,0.14560318
19.375,-0.415798187,19.375,0.143190765
19.38476563,-0.415764999,19.38476563,0.141423798
19.39453125,-0.415777588,19.39453125,0.139243126
19.40429688,-0.415959549,19.40429688,0.137586021
19.4140625,-0.415657997,19.4140625,0.137315941
19.42382813,-0.415869141,19.42382813,0.13429184
19.43359375,-0.415789032,19.43359375,0.132813263
19.44335938,-0.416080856,19.44335938,0.130588531
19.453125,-0.416047096,19.453125,0.130347061
19.46289063,-0.415829659,19.46289063,0.12694931
19.47265625,-0.415917778,19.47265625,0.125045013
19.48242188,-0.415724945,19.48242188,0.123892021
19.4921875,-0.415724373,19.4921875,0.123406219
19.50195313,-0.415728951,19.50195313,0.119978142
19.51171875,-0.415904617,19.51171875,0.118429756
19.52148438,-0.416053963,19.52148438,0.117544556
19.53125,-0.415898895,19.53125,0.1146492
19.54101563,-0.41609745,19.54101563,0.114606857
19.55078125,-0.415660286,19.55078125,0.111262321
19.56054688,-0.41620388,19.56054688,0.108971214
19.5703125,-0.415973854,19.5703125,0.107219124
19.58007813,-0.416062546,19.58007813,0.103645134
19.58984375,-0.415941238,19.58984375,0.103282356
19.59960938,-0.415904617,19.59960938,0.102327347
19.609375,-0.4157547,19.609375,0.102532768
19.61914063,-0.416408157,19.61914063,0.102529907
19.62890625,-0.416149521,19.62890625,0.102868652
19.63867188,-0.416210747,19.63867188,0.103512383
19.6484375,-0.416203308,19.6484375,0.105520821
19.65820313,-0.416150665,19.65820313,0.106402588
19.66796875,-0.416057968,19.66796875,0.107417679
19.67773438,-0.41639328,19.67773438,0.110022926
19.6875,-0.415983582,19.6875,0.110495567
19.69726563,-0.416044235,19.69726563,0.112105751
19.70703125,-0.416044235,19.70703125,0.114551353
19.71679688,-0.415800476,19.71679688,0.116558075
19.7265625,-0.415888596,19.7265625,0.118303299
19.73632813,-0.416056824,19.73632813,0.120079422
19.74609375,-0.416204453,19.74609375,0.123210526
19.75585938,-0.41592865,19.75585938,0.123632813
19.765625,-0.41602993,19.765625,0.126672363
19.77539063,-0.41569519,19.77539063,0.127773285
19.78515625,-0.415946388,19.78515625,0.130072975
19.79492188,-0.415830231,19.79492188,0.133185196
19.8046875,-0.415711212,19.8046875,0.135037994
19.81445313,-0.41571579,19.81445313,0.137051582
19.82421875,-0.416215324,19.82421875,0.140631294
19.83398438,-0.415941811,19.83398438,0.140884209
19.84375,-0.415983582,19.84375,0.143631363
19.85351563,-0.415649414,19.85351563,0.145404625
19.86328125,-0.415601921,19.86328125,0.148088837
19.87304688,-0.415581894,19.87304688,0.14954052
19.8828125,-0.415921211,19.8828125,0.150490952
19.89257813,-0.415770721,19.89257813,0.1528759
19.90234375,-0.415601349,19.90234375,0.153414345
19.91210938,-0.415575027,19.91210938,0.154094696
19.921875,-0.415621948,19.921875,0.156433296
19.93164063,-0.415751266,19.93164063,0.158200264
19.94140625,-0.415417099,19.94140625,0.160059929
19.95117188,-0.415295219,19.95117188,0.160957718
19.9609375,-0.41561451,19.9609375,0.162747574
19.97070313,-0.415548134,19.97070313,0.164083099
19.98046875,-0.415394783,19.98046875,0.165747643
19.99023438,-0.415625381,19.99023438,0.167920876
20,-0.415484047,20,0.169614601
20.00976563,-0.415389061,20.00976563,0.169759941
20.01953125,-0.415472031,20.01953125,0.170685196
20.02929688,-0.415544128,20.02929688,0.171146393
20.0390625,-0.415427399,20.0390625,0.172262192
20.04882813,-0.415442276,20.04882813,0.173620605
20.05859375,-0.41554184,20.05859375,0.174443436
20.06835938,-0.415349007,20.06835938,0.174143028
20.078125,-0.41535759,20.078125,0.174666595
20.08789063,-0.415472031,20.08789063,0.175545502
20.09765625,-0.41541996,20.09765625,0.175247383
20.10742188,-0.415382767,20.10742188,0.17634201
20.1171875,-0.415411949,20.1171875,0.176459885
20.12695313,-0.415397644,20.12695313,0.177317619
20.13671875,-0.415599632,20.13671875,0.176869011
20.14648438,-0.415517235,20.14648438,0.176478195
20.15625,-0.415414238,20.15625,0.176641846
20.16601563,-0.415354729,20.16601563,0.177215767
20.17578125,-0.415427399,20.17578125,0.176523972
20.18554688,-0.415512085,20.18554688,0.177031517
20.1953125,-0.415430832,20.1953125,0.174776459
20.20507813,-0.415417671,20.20507813,0.17555809
20.21484375,-0.41554184,20.21484375,0.175998688
20.22460938,-0.415409088,20.22460938,0.173839188
20.234375,-0.415376472,20.234375,0.173157692
20.24414063,-0.415401077,20.24414063,0.172605515
20.25390625,-0.415466881,20.25390625,0.171146965
20.26367188,-0.415505219,20.26367188,0.169516182
20.2734375,-0.415689468,20.2734375,0.168370628
20.28320313,-0.41559906,20.28320313,0.167777824
20.29296875,-0.415509796,20.29296875,0.167599869
20.30273438,-0.415734673,20.30273438,0.166453171
20.3125,-0.415336418,20.3125,0.164733124
20.32226563,-0.415391922,20.32226563,0.163328362
20.33203125,-0.415704918,20.33203125,0.161877823
20.34179688,-0.415563011,20.34179688,0.161811447
20.3515625,-0.415702057,20.3515625,0.161751938
20.36132813,-0.415580177,20.36132813,0.158573914
20.37109375,-0.415583038,20.37109375,0.157301903
20.38085938,-0.41558075,20.38085938,0.156131744
20.390625,-0.415618515,20.390625,0.155131531
20.40039063,-0.415584755,20.40039063,0.154185104
20.41015625,-0.415493774,20.41015625,0.152337456
20.41992188,-0.415708923,20.41992188,0.151071739
20.4296875,-0.415737534,20.4296875,0.148132896
20.43945313,-0.415700912,20.43945313,0.148182106
20.44921875,-0.415625381,20.44921875,0.147078896
20.45898438,-0.415732956,20.45898438,0.144296837
20.46875,-0.415747261,20.46875,0.142379379
20.47851563,-0.415865707,20.47851563,0.140807533
20.48828125,-0.415881157,20.48828125,0.140099144
20.49804688,-0.415674591,20.49804688,0.137905312
20.5078125,-0.415781021,20.5078125,0.135796738
20.51757813,-0.415835381,20.51757813,0.133656693
20.52734375,-0.415796471,20.52734375,0.131979561
20.53710938,-0.415784454,20.53710938,0.131497192
20.546875,-0.415636826,20.546875,0.129493904
20.55664063,-0.41593895,20.55664063,0.12805481
20.56640625,-0.415729523,20.56640625,0.125013542
20.57617188,-0.415978432,20.57617188,0.12400074
20.5859375,-0.416027069,20.5859375,0.121657562
20.59570313,-0.415881157,20.59570313,0.120100021
20.60546875,-0.416052246,20.60546875,0.117640686
20.61523438,-0.415864563,20.61523438,0.115921783
20.625,-0.41606884,20.625,0.114931297
20.63476563,-0.41624279,20.63476563,0.112537193
20.64453125,-0.415852547,20.64453125,0.113309097
20.65429688,-0.416127205,20.65429688,0.113430977
20.6640625,-0.416063118,20.6640625,0.114002037
20.67382813,-0.415947533,20.67382813,0.114737892
20.68359375,-0.41623764,20.68359375,0.114737892
20.69335938,-0.415989876,20.69335938,0.115296364
20.703125,-0.415900612,20.703125,0.116593552
20.71289063,-0.415980721,20.71289063,0.118723869
20.72265625,-0.416114616,20.72265625,0.120293427
20.73242188,-0.41589489,20.73242188,0.122166252
20.7421875,-0.415719795,20.7421875,0.121862984
20.75195313,-0.416020203,20.75195313,0.125007248
20.76171875,-0.415888023,20.76171875,0.126629448
20.77148438,-0.415930367,20.77148438,0.128719711
20.78125,-0.415955544,20.78125,0.13119278
20.79101563,-0.415905762,20.79101563,0.132560921
20.80078125,-0.415733528,20.80078125,0.134713554
20.81054688,-0.41584568,20.81054688,0.136001587
20.8203125,-0.415830231,20.8203125,0.138471794
20.83007813,-0.415758133,20.83007813,0.140397835
20.83984375,-0.415591621,20.83984375,0.140903091
20.84960938,-0.415506935,20.84960938,0.143161583
20.859375,-0.415585327,20.859375,0.144358635
20.86914063,-0.415577888,20.86914063,0.145377159
20.87890625,-0.415646553,20.87890625,0.146706963
20.88867188,-0.415750694,20.88867188,0.148302841
20.8984375,-0.415605354,20.8984375,0.150866318
20.90820313,-0.415645981,20.90820313,0.151543808
20.91796875,-0.41561451,20.91796875,0.152649307
20.92773438,-0.415716362,20.92773438,0.153263283
20.9375,-0.415621948,20.9375,0.153589439
20.94726563,-0.4155756,20.94726563,0.155778122
20.95703125,-0.415775299,20.95703125,0.156697083
20.96679688,-0.415361023,20.96679688,0.157032967
20.9765625,-0.415776443,20.9765625,0.158287239
20.98632813,-0.415501785,20.98632813,0.158226013
20.99609375,-0.415566444,20.99609375,0.159181023
21.00585938,-0.415320969,21.00585938,0.162610245
21.015625,-0.415805626,21.015625,0.162519264
21.02539063,-0.415423393,21.02539063,0.163102913
21.03515625,-0.415643692,21.03515625,0.16313839
21.04492188,-0.415492058,21.04492188,0.164060783
21.0546875,-0.415556717,21.0546875,0.16541748
21.06445313,-0.415571594,21.06445313,0.165364838
21.07421875,-0.415524673,21.07421875,0.166313553
21.08398438,-0.415514946,21.08398438,0.166692924
21.09375,-0.415536118,21.09375,0.165538216
21.10351563,-0.415481186,21.10351563,0.166722107
21.11328125,-0.41537075,21.11328125,0.166078377
21.12304688,-0.415540695,21.12304688,0.166498947
21.1328125,-0.415522957,21.1328125,0.167056847
21.14257813,-0.415550995,21.14257813,0.166626549
21.15234375,-0.415442276,21.15234375,0.16594677
21.16210938,-0.415513802,21.16210938,0.166865158
21.171875,-0.415587044,21.171875,0.165478706
21.18164063,-0.415584755,21.18164063,0.16513195
21.19140625,-0.41550293,21.19140625,0.164548874
21.20117188,-0.415728378,21.20117188,0.165349388
21.2109375,-0.415342712,21.2109375,0.16498661
21.22070313,-0.415577888,21.22070313,0.164060783
21.23046875,-0.415552711,21.23046875,0.164128304
21.24023438,-0.415482903,21.24023438,0.164754295
21.25,-0.415550995,21.25,0.163600731
21.25976563,-0.415542984,21.25976563,0.16345253
21.26953125,-0.415514374,21.26953125,0.162692642
21.27929688,-0.415441132,21.27929688,0.161560249
21.2890625,-0.415627098,21.2890625,0.162096405
21.29882813,-0.415413666,21.29882813,0.161250114
21.30859375,-0.415562439,21.30859375,0.16006279
21.31835938,-0.415417671,21.31835938,0.158811378
21.328125,-0.415649414,21.328125,0.159372139
21.33789063,-0.415572166,21.33789063,0.15890007
21.34765625,-0.41580162,21.34765625,0.158625984
21.35742188,-0.415670586,21.35742188,0.157603455
21.3671875,-0.415694618,21.3671875,0.155199051
21.37695313,-0.415529251,21.37695313,0.155506325
21.38671875,-0.415563011,21.38671875,0.154983902
21.39648438,-0.415571594,21.39648438,0.153216362
21.40625,-0.415722084,21.40625,0.152874756
21.41601563,-0.415571594,21.41601563,0.151988411
21.42578125,-0.415631104,21.42578125,0.15077877
21.43554688,-0.415617371,21.43554688,0.150003433
21.4453125,-0.415731239,21.4453125,0.150208855
21.45507813,-0.415664291,21.45507813,0.147761536
21.46484375,-0.415849113,21.46484375,0.146327591
21.47460938,-0.415731239,21.47460938,0.144372368
21.484375,-0.415921783,21.484375,0.143856239
21.49414063,-0.415715218,21.49414063,0.142444611
21.50390625,-0.415934944,21.50390625,0.140210724
21.51367188,-0.415668869,21.51367188,0.139571571
21.5234375,-0.415758705,21.5234375,0.138173676
21.53320313,-0.415808487,21.53320313,0.136644745
21.54296875,-0.41580677,21.54296875,0.135225677
21.55273438,-0.415703773,21.55273438,0.134448624
21.5625,-0.415854836,21.5625,0.134420586
21.57226563,-0.415835953,21.57226563,0.132816696
21.58203125,-0.415888023,21.58203125,0.130928421
21.59179688,-0.415525246,21.59179688,0.127565002
21.6015625,-0.415791893,21.6015625,0.126416016
21.61132813,-0.415899467,21.61132813,0.124676514
21.62109375,-0.416069412,21.62109375,0.121707916
21.63085938,-0.415940094,21.63085938,0.11984024
21.640625,-0.415977859,21.640625,0.119685745
21.65039063,-0.415977859,21.65039063,0.12024765
21.66015625,-0.415860558,21.66015625,0.120796394
21.66992188,-0.416028214,21.66992188,0.120153236
21.6796875,-0.415728951,21.6796875,0.120861053
21.68945313,-0.41599102,21.68945313,0.12276535
21.69921875,-0.416096878,21.69921875,0.123992729
21.70898438,-0.415819359,21.70898438,0.126295853
21.71875,-0.416035652,21.71875,0.128860474
21.72851563,-0.415791321,21.72851563,0.129375458
21.73828125,-0.415815926,21.73828125,0.132588387
21.74804688,-0.415758133,21.74804688,0.135756111
21.7578125,-0.415708351,21.7578125,0.137203217
21.76757813,-0.415900612,21.76757813,0.140501976
21.77734375,-0.415611076,21.77734375,0.144011307
21.78710938,-0.415863419,21.78710938,0.14769516
21.796875,-0.415698051,21.796875,0.149123955
21.80664063,-0.415430832,21.80664063,0.15229454
21.81640625,-0.415651131,21.81640625,0.154809952
21.82617188,-0.415613937,21.82617188,0.157846069
21.8359375,-0.415770149,21.8359375,0.162998199
21.84570313,-0.415413094,21.84570313,0.167142677
21.85546875,-0.415490913,21.85546875,0.170834541
21.86523438,-0.415366173,21.86523438,0.174111557
21.875,-0.415438843,21.875,0.177917862
21.88476563,-0.4152071,21.88476563,0.17955265
21.89453125,-0.41530838,21.89453125,0.182750702
21.90429688,-0.415136147,21.90429688,0.186079216
21.9140625,-0.415389061,21.9140625,0.189011765
21.92382813,-0.415216827,21.92382813,0.19189167
21.93359375,-0.414882088,21.93359375,0.194071198
21.94335938,-0.41535759,21.94335938,0.196984291
21.953125,-0.415021133,21.953125,0.199912262
21.96289063,-0.415553856,21.96289063,0.200224113
21.97265625,-0.415078926,21.97265625,0.204418945
21.98242188,-0.414937592,21.98242188,0.207647896
21.9921875,-0.415204239,21.9921875,0.209050941
22.00195313,-0.415007401,22.00195313,0.211420441
22.01171875,-0.414984512,22.01171875,0.213998222
22.02148438,-0.414986801,22.02148438,0.215693665
22.03125,-0.414937019,22.03125,0.217896652
22.04101563,-0.415010262,22.04101563,0.219780922
22.05078125,-0.415075493,22.05078125,0.221969604
22.06054688,-0.415111542,22.06054688,0.222556686
22.0703125,-0.414959908,22.0703125,0.225072098
22.08007813,-0.414970207,22.08007813,0.226082611
22.08984375,-0.414868927,22.08984375,0.228600883
22.09960938,-0.415018272,22.09960938,0.230347252
22.109375,-0.41506176,22.109375,0.232047272
22.11914063,-0.414903831,22.11914063,0.232860947
22.12890625,-0.414854622,22.12890625,0.233950424
22.13867188,-0.414759636,22.13867188,0.235792351
22.1484375,-0.414823151,22.1484375,0.236745644
22.15820313,-0.414532471,22.15820313,0.237228012
22.16796875,-0.414917564,22.16796875,0.238153267
22.17773438,-0.414728165,22.17773438,0.239112854
22.1875,-0.414724159,22.1875,0.2392519
22.19726563,-0.414763641,22.19726563,0.240735054
22.20703125,-0.414852333,22.20703125,0.240293884
22.21679688,-0.414733887,22.21679688,0.241030884
22.2265625,-0.414774513,22.2265625,0.243110847
22.23632813,-0.414797401,22.23632813,0.243222427
22.24609375,-0.414694405,22.24609375,0.243525124
22.25585938,-0.414653778,22.25585938,0.245048332
22.265625,-0.414888382,22.265625,0.24473877
22.27539063,-0.414658356,22.27539063,0.245055199
22.28515625,-0.414754486,22.28515625,0.247588348
22.29492188,-0.414739037,22.29492188,0.248133087
22.3046875,-0.414802551,22.3046875,0.248184586
22.31445313,-0.414763641,22.31445313,0.247471046
22.32421875,-0.414728165,22.32421875,0.248319626
22.33398438,-0.414757919,22.33398438,0.247930527
22.34375,-0.414753914,22.34375,0.249353027
22.35351563,-0.414909554,22.35351563,0.250579834
22.36328125,-0.414824867,22.36328125,0.249972153
22.37304688,-0.414856339,22.37304688,0.249201965
22.3828125,-0.414682961,22.3828125,0.249027443
22.39257813,-0.414730453,22.39257813,0.251280212
22.40234375,-0.414589119,22.40234375,0.250435066
22.41210938,-0.414624023,22.41210938,0.248815155
22.421875,-0.414711571,22.421875,0.250839615
22.43164063,-0.414720726,22.43164063,0.250227356
22.44140625,-0.41451416,22.44140625,0.250641632
22.45117188,-0.414807129,22.45117188,0.248954201
22.4609375,-0.414803123,22.4609375,0.248325348
22.47070313,-0.414443207,22.47070313,0.248838043
22.48046875,-0.41493988,22.48046875,0.248602295
22.49023438,-0.414745331,22.49023438,0.24843235
22.5,-0.414650345,22.5,0.247714233
22.50976563,-0.414603424,22.50976563,0.247899628
22.51953125,-0.414582825,22.51953125,0.247496796
22.52929688,-0.414791107,22.52929688,0.247303391
22.5390625,-0.414779663,22.5390625,0.245958138
22.54882813,-0.414800835,22.54882813,0.24577446
22.55859375,-0.414602852,22.55859375,0.246463394
22.56835938,-0.414533043,22.56835938,0.244285011
22.578125,-0.414768791,22.578125,0.244496155
22.58789063,-0.41486721,22.58789063,0.242070007
22.59765625,-0.414771652,22.59765625,0.242439651
22.60742188,-0.41493988,22.60742188,0.241209412
22.6171875,-0.414997673,22.6171875,0.238856506
22.62695313,-0.414797974,22.62695313,0.238046837
22.63671875,-0.41501255,22.63671875,0.236732483
22.64648438,-0.414807129,22.64648438,0.236533928
22.65625,-0.41478138,22.65625,0.235147476
22.66601563,-0.41480484,22.66601563,0.234835052
22.67578125,-0.414834023,22.67578125,0.235321999
22.68554688,-0.414684105,22.68554688,0.234634209
22.6953125,-0.41473732,22.6953125,0.235726547
22.70507813,-0.415025139,22.70507813,0.235974884
22.71484375,-0.41473732,22.71484375,0.237074661
22.72460938,-0.414752197,22.72460938,0.239698792
22.734375,-0.414756203,22.734375,0.242406464
22.74414063,-0.414720726,22.74414063,0.243196678
22.75390625,-0.41458168,22.75390625,0.245374489
22.76367188,-0.41483345,22.76367188,0.248613167
22.7734375,-0.414731026,22.7734375,0.251929092
22.78320313,-0.414684105,22.78320313,0.252803993
22.79296875,-0.414604568,22.79296875,0.256014633
22.80273438,-0.414701843,22.80273438,0.260092163
22.8125,-0.414795685,22.8125,0.262688255
22.82226563,-0.414556503,22.82226563,0.265233421
22.83203125,-0.414681244,22.83203125,0.268507576
22.84179688,-0.414482117,22.84179688,0.271033287
22.8515625,-0.414470673,22.8515625,0.275684738
22.86132813,-0.414177132,22.86132813,0.279392624
22.87109375,-0.414373398,22.87109375,0.283506203
22.88085938,-0.414438629,22.88085938,0.28555069
22.890625,-0.414368248,22.890625,0.28843689
22.90039063,-0.414206886,22.90039063,0.290288544
22.91015625,-0.414361382,22.91015625,0.29355011
22.91992188,-0.414285278,22.91992188,0.295126534
22.9296875,-0.414229774,22.9296875,0.296922684
22.93945313,-0.414055824,22.93945313,0.299403191
22.94921875,-0.414242935,22.94921875,0.300785637
22.95898438,-0.41406498,22.95898438,0.302660751
22.96875,-0.414225197,22.96875,0.303872681
22.97851563,-0.414174271,22.97851563,0.306095123
22.98828125,-0.414302444,22.98828125,0.308022308
22.99804688,-0.414151955,22.99804688,0.310702515
23.0078125,-0.4143116,23.0078125,0.313501167
23.01757813,-0.41434536,23.01757813,0.313799286
23.02734375,-0.414303589,23.02734375,0.315266991
23.03710938,-0.414003181,23.03710938,0.316719818
23.046875,-0.41390934,23.046875,0.318752861
23.05664063,-0.41398716,23.05664063,0.320796204
23.06640625,-0.414119339,23.06640625,0.321811295
23.07617188,-0.413995171,23.07617188,0.323188591
23.0859375,-0.414032364,23.0859375,0.322919083
23.09570313,-0.414121056,23.09570313,0.324375916
23.10546875,-0.414150238,23.10546875,0.326099968
23.11523438,-0.4139328,23.11523438,0.324420547
23.125,-0.413990021,23.125,0.326365471
23.13476563,-0.414056396,23.13476563,0.325951767
23.14453125,-0.413917923,23.14453125,0.327767944
23.15429688,-0.413997459,23.15429688,0.326695061
23.1640625,-0.414036369,23.1640625,0.325923157
23.17382813,-0.413955116,23.17382813,0.327043533
23.18359375,-0.413933945,23.18359375,0.326293945
23.19335938,-0.414025497,23.19335938,0.325964928
23.203125,-0.414154816,23.203125,0.326697922
23.21289063,-0.413993454,23.21289063,0.325932884
23.22265625,-0.414003181,23.22265625,0.324317551
23.23242188,-0.414089584,23.23242188,0.3252285
23.2421875,-0.413936806,23.2421875,0.325047112
23.25195313,-0.413947678,23.25195313,0.325004768
23.26171875,-0.413957405,23.26171875,0.325166702
23.27148438,-0.413499641,23.27148438,0.324687195
23.28125,-0.413945389,23.28125,0.324064064
23.29101563,-0.41397686,23.29101563,0.32281208
23.30078125,-0.413969994,23.30078125,0.323318481
23.31054688,-0.413904762,23.31054688,0.321783257
23.3203125,-0.413907623,23.3203125,0.321972656
23.33007813,-0.41378746,23.33007813,0.321251678
23.33984375,-0.413899612,23.33984375,0.318919945
23.34960938,-0.414086151,23.34960938,0.319338226
23.359375,-0.41407814,23.359375,0.31817379
23.36914063,-0.413879013,23.36914063,0.317781258
23.37890625,-0.413997459,23.37890625,0.316618538
23.38867188,-0.413981438,23.38867188,0.315995407
23.3984375,-0.414081573,23.3984375,0.315149117
23.40820313,-0.41407814,23.40820313,0.31321106
23.41796875,-0.413959122,23.41796875,0.312399101
23.42773438,-0.414249802,23.42773438,0.310853577
23.4375,-0.414130783,23.4375,0.309911728
23.44726563,-0.414178276,23.44726563,0.308776474
23.45703125,-0.413986015,23.45703125,0.307982826
23.46679688,-0.414116478,23.46679688,0.304507828
23.4765625,-0.414047813,23.4765625,0.30502224
23.48632813,-0.414367676,23.48632813,0.301719475
23.49609375,-0.414158821,23.49609375,0.30140419
23.50585938,-0.414075279,23.50585938,0.300124168
23.515625,-0.413952255,23.515625,0.297726631
23.52539063,-0.414154816,23.52539063,0.295394325
23.53515625,-0.414280701,23.53515625,0.294379807
23.54492188,-0.414302444,23.54492188,0.291759109
23.5546875,-0.414469528,23.5546875,0.291141701
23.56445313,-0.414382553,23.56445313,0.289723206
23.57421875,-0.414201164,23.57421875,0.287137413
23.58398438,-0.414366531,23.58398438,0.286097717
23.59375,-0.414249229,23.59375,0.284088135
23.60351563,-0.414504433,23.60351563,0.280594254
23.61328125,-0.414401436,23.61328125,0.279205513
23.62304688,-0.414459801,23.62304688,0.276517868
23.6328125,-0.414274406,23.6328125,0.274081993
23.64257813,-0.414487839,23.64257813,0.272530746
23.65234375,-0.414548492,23.65234375,0.270023346
23.66210938,-0.414505577,23.66210938,0.268906975
23.671875,-0.414599991,23.671875,0.26731739
23.68164063,-0.414813995,23.68164063,0.264865494
23.69140625,-0.414599991,23.69140625,0.266268539
23.70117188,-0.414510155,23.70117188,0.266757202
23.7109375,-0.414554787,23.7109375,0.268614006
23.72070313,-0.414628029,23.72070313,0.267281342
23.73046875,-0.414400291,23.73046875,0.268530464
23.74023438,-0.414704704,23.74023438,0.270216751
23.75,-0.414449501,23.75,0.271325111
23.75976563,-0.414258957,23.75976563,0.274530029
23.76953125,-0.414559937,23.76953125,0.275331116
23.77929688,-0.414598274,23.77929688,0.278021049
23.7890625,-0.414426613,23.7890625,0.280439186
23.79882813,-0.414357948,23.79882813,0.283511353
23.80859375,-0.414333916,23.80859375,0.286261368
23.81835938,-0.414343643,23.81835938,0.289665413
23.828125,-0.414248085,23.828125,0.290409279
23.83789063,-0.4141119,23.83789063,0.292889786
23.84765625,-0.414360237,23.84765625,0.295025826
23.85742188,-0.414268684,23.85742188,0.299051857
23.8671875,-0.414090157,23.8671875,0.300839996
23.87695313,-0.414057541,23.87695313,0.302885056
23.88671875,-0.414033508,23.88671875,0.306754303
23.89648438,-0.414305878,23.89648438,0.307664108
23.90625,-0.414202309,23.90625,0.309003067
23.91601563,-0.414164543,23.91601563,0.310411835
23.92578125,-0.414110756,23.92578125,0.310785484
23.93554688,-0.413888741,23.93554688,0.313847923
23.9453125,-0.41419487,23.9453125,0.31615963
23.95507813,-0.414158249,23.95507813,0.316668892
23.96484375,-0.413964272,23.96484375,0.317432213
23.97460938,-0.414057541,23.97460938,0.320138168
23.984375,-0.413830376,23.984375,0.320649147
23.99414063,-0.413888168,23.99414063,0.322362328
24.00390625,-0.413915062,24.00390625,0.324078369
24.01367188,-0.414187431,24.01367188,0.32482338
24.0234375,-0.414122772,24.0234375,0.326298523
24.03320313,-0.413983154,24.03320313,0.329528046
24.04296875,-0.413973427,24.04296875,0.329057121
24.05273438,-0.413927078,24.05273438,0.330234146
24.0625,-0.413869286,24.0625,0.331415749
24.07226563,-0.413751411,24.07226563,0.333007622
24.08203125,-0.414012337,24.08203125,0.335269547
24.09179688,-0.413709641,24.09179688,0.335429192
24.1015625,-0.41384182,24.1015625,0.335847473
24.11132813,-0.413785172,24.11132813,0.336385345
24.12109375,-0.413745689,24.12109375,0.337685394
24.13085938,-0.413816643,24.13085938,0.337913704
24.140625,-0.413828659,24.140625,0.337774658
24.15039063,-0.413969421,24.15039063,0.338774872
24.16015625,-0.413927078,24.16015625,0.337888527
24.16992188,-0.413711929,24.16992188,0.339095879
24.1796875,-0.413952255,24.1796875,0.339892387
24.18945313,-0.413630676,24.18945313,0.339153671
24.19921875,-0.413771439,24.19921875,0.339624596
24.20898438,-0.413577461,24.20898438,0.340573883
24.21875,-0.413777161,24.21875,0.340057755
24.22851563,-0.413925934,24.22851563,0.340026855
24.23828125,-0.413717079,24.23828125,0.340434837
24.24804688,-0.413977432,24.24804688,0.339380264
24.2578125,-0.413968849,24.2578125,0.339020348
24.26757813,-0.413810921,24.26757813,0.338063049
24.27734375,-0.413812637,24.27734375,0.338396645
24.28710938,-0.413869858,24.28710938,0.339003181
24.296875,-0.413924217,24.296875,0.336972427
24.30664063,-0.413778305,24.30664063,0.33673439
24.31640625,-0.413850975,24.31640625,0.337581825
24.32617188,-0.413949394,24.32617188,0.336793327
24.3359375,-0.413760567,24.3359375,0.335963631
24.34570313,-0.41379261,24.34570313,0.333621597
24.35546875,-0.413895607,24.35546875,0.333738327
24.36523438,-0.413991165,24.36523438,0.334033012
24.375,-0.413899612,24.375,0.332818794
24.38476563,-0.413872719,24.38476563,0.331439209
24.39453125,-0.413941956,24.39453125,0.330913925
24.40429688,-0.413928223,24.40429688,0.330651283
24.4140625,-0.413908195,24.4140625,0.328102684
24.42382813,-0.413972282,24.42382813,0.328689194
24.43359375,-0.413941383,24.43359375,0.32775135
24.44335938,-0.413895035,24.44335938,0.325899696
24.453125,-0.413754845,24.453125,0.324367905
24.46289063,-0.414082718,24.46289063,0.323243523
24.47265625,-0.41405983,24.47265625,0.32287674
24.48242188,-0.414210892,24.48242188,0.322562599
24.4921875,-0.413832092,24.4921875,0.320308113
24.50195313,-0.414123917,24.50195313,0.317866516
24.51171875,-0.414075851,24.51171875,0.317689133
24.52148438,-0.413968277,24.52148438,0.315454674
24.53125,-0.414134216,24.53125,0.313227654
24.54101563,-0.414226913,24.54101563,0.312145042
24.55078125,-0.414122772,24.55078125,0.310601234
24.56054688,-0.413941956,24.56054688,0.308691788
24.5703125,-0.414019203,24.5703125,0.306578064
24.58007813,-0.414159966,24.58007813,0.305925179
24.58984375,-0.414060974,24.58984375,0.303790283
